timestamp,x,y,z
222716481025,3.875,-0.6875,0.6875
222716496217,3.0625,-0.3125,0.625
222716516977,1.5625,0.375,0.5
222716533297,1.6875,0.6875,0.8125
222716555831,2.625,0.3125,0.4375
222716576942,3,-0.3125,0.5
222716593292,0.75,-0.375,0.875
222716623334,0.25,0.375,-0.4375
222716636958,0.8125,0.1875,-0.0625
222716653405,1,-0.125,-0.0625
222716675785,-0.25,-0.5625,-0.0625
222716696962,-1.9375,-0.25,-0.625
222716713384,0.25,0.0625,-0.75
222716735850,2.25,-0.25,0.6875
222716756818,2.5625,-1,0.6875
222716773249,-0.625,-0.625,-0.25
222716795839,-1.8125,0.3125,-0.6875
222716818314,0.3125,0.25,-0.625
222716832653,4.0625,0.0625,0.8125
222716856496,4.1875,-0.875,1.5625
222716878300,0.3125,-0.5625,0.9375
222716893305,-2.1875,-0.3125,-0.0625
222716915832,-1.5,-0.6875,-1.375
222716938304,0.75,-0.5625,-0.75
222716952629,1.875,-1.125,0.4375
222716981848,-0.125,-1.125,-0.5
222716998345,-2.25,-0.5625,-1.0625
222717012658,-1.125,-0.375,-1.125
222717035786,1.125,-0.125,-0.125
222717058283,2.5,-0.5625,0.25
222717072644,1.0625,-0.3125,0
222717103264,0.375,-0.5,-0.5
222717118333,0.625,-0.4375,-1
222717132625,-0.25,-0.0625,0.6875
222717156459,-0.25,-0.625,-0.5
222717178045,0.125,-1.1875,-2
222717192621,-0.3125,-0.5,-0.8125
222717216429,1.4375,0.5625,-1.0625
222717238333,3.375,1.0625,0.5
222717259358,3.0625,-0.25,0.1875
222717275786,0.8125,-1.25,-1.75
222717298293,0.1875,-0.5625,-1.3125
222717319392,-0.125,-0.375,0.125
222717335840,0.3125,-0.9375,0.875
222717358250,-1.5625,-1.5,0.4375
222717379354,-2.0625,-0.875,-1.0625
222717395739,-0.3125,0.875,-2.4375
222717418292,0.9375,4.1875,-2.0625
222717439454,1.3125,5.4375,-0.1875
222717455788,-19.375,7.5625,-1.9375
222717478986,3,10.5625,-0.4375
222717500738,2.9375,26.6875,7.9375
222717515778,-1.75,6.875,24.1875
222717538303,26.375,-8.5,-16.625
222717551958,11.75,6.0625,-39.375
222717574524,-64.3125,19.9375,5.125
222717596837,-50.9375,-2.375,4.1875
222717619502,10.5625,-5.75,-10.4375
222717635108,25.625,3.1875,11.4375
222717665775,24.9375,7.625,13.75
222717686910,12.8125,3.0625,5.3125
222717695145,4.625,2.5625,5.25
222717718267,7.75,6.4375,2.8125
222717740675,10,7,2.25
222717755837,2.125,1.625,0.0625
222717778316,-1.75,-2.5625,-1.0625
222717800779,0.25,-0.25,5
222717815802,-3.3125,1.5,3.8125
222717838299,2.1875,0.375,-2.875
222717860778,13.75,-1.5625,6.0625
222717883278,-5.625,-2.75,13.3125
222717898449,-12.6875,0.6875,0.1875
222717920836,4.9375,1.4375,3.25
222717935632,19.6875,-7,9.5625
222717958041,12.25,-11.0625,8.4375
222717980685,-7.125,-4.4375,3.5
222718001930,-3.625,2.125,0.875
222718018294,7.875,-0.875,1.375
222718040821,13.375,-3.0625,1.9375
222718055109,4.875,0.4375,0
222718078279,3.8125,3.4375,0.3125
222718100766,6.8125,-2.375,2.0625
222718115119,-1.0625,-5.875,2.5625
222718138032,-7.125,-0.875,-0.8125
222718160682,-1.875,1.5,-0.875
222718175095,8.9375,-4.4375,4.875
222718199719,6.5625,-6.125,5.625
222718223445,-8.375,1.1875,1.5625
222718244533,-1.75,7.9375,-1.75
222718258258,10.1875,3.625,-1.875
222718280549,7.875,2.5,-1.6875
222718301879,-7.75,-14.5625,2.125
222718318289,-12.75,-7.5,0.125
222718340681,3.0625,5.375,-2.8125
222718361804,-5.0625,-9.4375,4.875
222718384440,2,1.6875,0.1875
222718401426,-4.6875,-4.5,-1
222718421938,11.6875,5.75,1.9375
222718438253,4.625,-2.9375,4.6875
222718460821,-5.9375,0.875,-1.125
222718481916,-3.3125,2.9375,-5.125
222718498291,1.0625,-2.375,-1.9375
222718521313,-0.3125,-6.75,3.125
222718549398,-6.4375,-2.375,1.125
222718558270,-1.625,0.375,-0.25
222718580671,3.6875,-2.8125,3.3125
222718602629,-2.5625,-5.4375,3.375
222718618236,-7.1875,-0.75,-1.5625
222718646934,2.375,3.9375,-3.5
222718661954,10.5,-1.875,2.75
222718685763,2.25,-9.375,7.375
222718700769,-5.4375,-2.125,1.6875
222718723235,1.9375,7.5,-1.375
222718738227,17.625,4.375,1.0625
222718760723,16.0625,-3.25,5.5
222718783273,1.1875,-3.9375,4.125
222718798263,-9,0.1875,-1.4375
222718820741,-3.75,-0.25,-1.5
222718849310,-0.9375,-2.75,-0.1875
222718857594,0.8125,-3.3125,2.5625
222718880682,1.875,2.25,-0.25
222718903262,5.5625,3.25,-1.625
222718917590,4,-2.1875,-0.1875
222718940687,-2.75,-4.375,0.8125
222718963255,-2.75,1.1875,-0.1875
222718977603,6.25,2.875,2.5625
222719000698,8.75,-0.375,3.875
222719023197,1.6875,0.8125,0.875
222719037556,-0.625,5.0625,-3.9375
222719060693,5.0625,1.5,-1.5625
222719083272,4.1875,-5.875,1.875
222719097551,-1.75,-4.125,2.125
222719128257,-1.3125,6.3125,0.375
222719143276,8.8125,13.1875,0.25
222719164391,16.9375,12.75,-2.625
222719180726,8.125,1.5625,-15.625
222719203223,-4.9375,1.5,-21.0625
222719224330,-11.875,7.375,-10.9375
222719240680,-6.5625,-4.75,-7.875
222719263758,-3.25,-14.75,-3.5625
222719284391,2.5,-18.4375,-6.1875
222719300528,0.625,-4.75,2.125
222719323290,10.4375,0.4375,10.8125
222719351844,18,-5.8125,2.25
222719360728,29,-12.3125,-9.0625
222719383642,9.75,-9.9375,-7.0625
222719404219,-5.5,-11.6875,-4
222719420694,-16.1875,-9.125,-6.5625
222719443216,-16.875,-4.9375,0.3125
222719464372,2.375,-0.4375,5
222719480709,9.3125,-0.6875,5.0625
222719503208,14.1875,-0.625,2.375
222719524261,11.875,0.5625,-2
222719542188,5.5625,2.6875,-3
222719564505,0.625,1.4375,2.8125
222719584303,7.875,-0.375,4.6875
222719600691,3.9375,-1.8125,3.125
222719622975,-1.5,-1.1875,1.1875
222719645721,-0.9375,0.0625,-2.125
222719660045,-0.8125,-2.25,-2.5625
222719683209,-2.125,-4,-0.125
222719705751,-7.0625,-1.3125,1.6875
222719720693,-7.5,1,0.125
222719743245,-0.9375,-0.75,-1.375
222719771869,8.375,-1.75,0.875
222719786888,12.5,-0.5625,3.875
222719812155,10.4375,0.5,3.5
222719826432,3.125,0.8125,0.8125
222719840233,-3.8125,0.4375,-2.0625
222719869355,-1.4375,0.6875,-1.8125
222719885683,2.1875,-1.1875,1.4375
222719900244,-2.3125,0.3125,5
222719923217,-5.4375,-7.875,0.8125
222719945710,7.25,5.4375,-4.6875
222719960021,-7.125,-7.0625,-0.6875
222719983223,5.6875,-3.0625,3.9375
222720005713,-8.75,-7.6875,2.625
222720020046,-1.25,0.1875,-2.9375
222720043183,0.375,-0.75,-2.9375
222720065776,3.625,-0.3125,-1.625
222720080045,3.5,-0.5,-1.1875
222720103203,0,-1.125,-0.625
222720125890,-1.6875,-0.625,-0.9375
222720146874,-0.6875,0.125,-1.4375
222720163204,2,0.4375,-1.0625
222720185692,4.75,-0.125,0.1875
222720214374,3.5625,-0.9375,-0.375
222720223220,-1.5625,-0.75,-0.375
222720245677,-2.25,-0.8125,-1.125
222720266706,2.5,-1.0625,-1.5
222720283156,4.4375,-0.9375,0
222720305695,4.3125,-0.1875,-0.25
222720326784,3.1875,-0.375,-1.25
222720343181,-0.875,-1.1875,-1.1875
222720365686,-2.75,-1.375,-1.3125
222720386845,-4.6875,-0.625,0.4375
222720403193,-4.375,0.4375,0.5
222720425670,2.3125,-0.6875,-1.375
222720446819,4.3125,-2.125,-1.5625
222720463228,4.375,-1.3125,-0.1875
222720485692,2.125,0.375,0.8125
222720506733,0,1.1875,0.125
222720523133,2.625,-1.5,-0.6875
222720545712,1.5,-2.625,-1.0625
222720566812,0.875,-2,-1.125
222720583136,2.5625,-0.3125,0.1875
222720605696,0.3125,0.6875,0.5
222720628168,-1.625,-0.4375,-0.0625
222720643129,-2.25,-1.8125,-1.125
222720665687,1.0625,-1.0625,-1.5
222720688166,2.4375,0.375,-0.1875
222720703168,1.875,0.1875,1.0625
222720725676,0.1875,-1.375,0
222720748149,-2.25,-3.875,0.1875
222720763998,1,-4.5,-0.125
222720786988,-4.125,0.6875,1.75
222720808133,-11.25,6.25,3.4375
222720822534,-3,2.6875,0.375
222720845426,-6.5,-5.25,-4.125
222720868200,-16.125,9.4375,-0.5625
222720889287,-10.3125,21.125,11.3125
222720905743,10.375,20.0625,18
222720928186,40.4375,12.25,9.6875
222720949350,29,21.25,3.8125
222720965688,-16.1875,-6.5,-7.6875
222720988181,-31.1875,2.5625,-21.0625
222721009218,-9.1875,16.4375,20.875
222721025868,26.4375,5.8125,40.125
222721048162,31.1875,3.0625,5.75
222721069368,29.3125,9.25,2.1875
222721085675,9.5,2.375,5.5625
222721108187,-7.125,-4,-5.875
222721129321,15.1875,-1.125,2.1875
222721145625,35.8125,3.5,22.875
222721168174,38.4375,2.25,34.75
222721189183,-2.4375,-0.6875,12.375
222721205664,-5.6875,3.9375,-1.3125
222721228193,-0.4375,5.5625,8.3125
222721249315,3.0625,-7.375,5.75
222721271875,-5.25,-7.0625,-4.4375
222721295621,-5.3125,4.375,-8.0625
222721309231,11.875,8.5625,3.875
222721331825,19.625,2.75,8.875
222721348134,5.5625,0.8125,-2.875
222721369245,-10.125,-2.1875,-6.3125
222721386132,-20.4375,-11.625,-3.9375
222721408121,-17.875,-11.1875,-0.0625
222721429234,-10.3125,-0.25,-7.5
222721445016,10.4375,11.25,-0.9375
222721468178,23.3125,6.25,7.5
222721490616,16.875,-4.3125,7.375
222721504990,-5.75,-5.125,-1.125
222721528164,-17.75,-4.4375,-2.8125
222721550627,-12,-8.25,-1.4375
222721573168,-1.9375,-7.5,2.375
222721588178,9.6875,-0.125,-0.8125
222721610634,19.4375,3.25,0.8125
222721625230,21.875,-0.4375,3.8125
222721655899,4.8125,-7.375,-0.4375
222721670609,-8.25,-5.375,-7.375
222721684981,1.0625,1.5625,-3
222721708122,-0.625,1.75,6.125
222721730396,-6.5625,3.8125,0.875
222721745036,-3,8.6875,-8.625
222721768156,3.1875,2.8125,-0.25
222721790606,-1.375,-8.6875,8.0625
222721804979,-12.1875,-3.375,-0.3125
222721828117,-6.8125,8.1875,-8.6875
222721850668,5.8125,3.375,-9.6875
222721865005,1.3125,-7.6875,0.875
222721888129,-18.4375,-5.5625,-2.125
222721910655,-23.8125,-2.6875,-8.6875
222721931802,-7.5,-7.125,-0.375
222721948118,5.375,-8,8.875
222721970650,2.1875,-1.375,2.75
222721991801,-0.625,4.6875,-7.1875
222722008155,0.1875,3.4375,-13.0625
222722030609,-1.75,-1.125,-13.3125
222722051685,-12.1875,-3.875,-9.625
222722068155,-13.8125,-2.625,-9.0625
222722090582,-12.3125,1.5,-9.9375
222722111642,1.125,3.0625,-6.875
222722128070,11.4375,-3.6875,-8
222722150674,-2,-11.8125,-9.25
222722171806,-25,-15.375,-13.5625
222722188108,-44.375,-14.6875,-18
222722211047,-36.375,-6.4375,-16.8125
222722231656,-7.9375,0.9375,-6.1875
222722247493,18.3125,5.375,-0.9375
222722270646,30.75,-3.125,2.0625
222722294558,23.4375,-6.5,0.875
222722314848,2.625,-1.25,1.4375
222722332023,-7.3125,4.0625,3.4375
222722353076,-4.75,-3.1875,2.5
222722367475,1.75,-9.5,-2.1875
222722390634,3.5,-18.1875,-1.75
222722413731,2.875,-5.3125,-2.375
222722428081,-1.9375,-4.625,1.5
222722450647,19.9375,1,1.1875
222722471627,7.5,-0.625,-0.5
222722487430,4.9375,-13,4
222722510633,-6.1875,-5.3125,0.1875
222722533099,-5.4375,-1.9375,-0.125
222722548105,-4,-2.3125,-2.5625
222722570583,2.3125,-0.75,0
222722593096,0.4375,2.125,-1
222722607427,-0.5,2.3125,-1.3125
222722638104,2.1875,0,0.3125
222722653091,2.8125,0.125,2.6875
222722667422,3.4375,0.8125,3.625
222722690629,2.4375,0.5,-0.1875
222722713532,-0.375,0.1875,-0.625
222722727387,2.4375,-2.25,0.1875
222722750822,-0.375,-4,0.5
222722776487,-6.5,-2.25,-0.5625
222722795799,-6.0625,2.0625,-1.5625
222722810587,0.9375,3.25,-1.0625
222722833059,12.875,-2.125,-0.3125
222722847404,8.0625,6.8125,3.9375
222722870623,-1.5,3.5,2.3125
222722875997,4.5,3.6875,-0.4375
222722901399,-13,4.5,-1.8125
222722915012,3.5625,-6.25,3.5
222722936047,4.0625,-0.0625,2.9375
222722961446,4.625,-1.875,0
222722974992,-3.1875,-1.625,-0.875
222722996104,-8.8125,-0.0625,-1.3125
222723018434,-4.4375,0.875,-1.625
222723034979,4.125,-0.5,-0.8125
222723055993,8.0625,-2.0625,0.75
222723078500,3.8125,-1.625,0.5625
222723094888,-3.625,-0.25,0
222723116005,-4.6875,1.0625,-0.625
222723141425,-1.125,-0.625,-1.3125
222723156364,4.0625,-1.6875,-0.4375
222723176034,4.875,-2.1875,-0.25
222723199930,-0.375,-1.125,-0.4375
222723216410,0.9375,0.1875,0.0625
222723238937,2.25,-0.625,0.6875
222723258468,4.5,-1.1875,0.6875
