timestamp,emg1,emg2,emg3,emg4,emg5,emg6,emg7,emg8,
2.30947E+11,2,4,0,-2,0,-1,-3,0,1
2.30947E+11,0,0,2,-1,-2,0,-1,-2,2
2.30947E+11,4,2,-1,0,-1,1,0,1,3
2.30947E+11,-1,-3,1,0,1,-2,-1,-2,4
2.30947E+11,-4,-4,0,1,-4,0,0,1,5
2.30947E+11,-1,-3,-3,-1,1,0,-2,-5,6
2.30947E+11,2,-2,-3,0,-1,-2,-2,0,7
2.30947E+11,0,0,2,0,2,-1,-1,-3,8
2.30947E+11,0,0,-2,-3,-5,2,1,0,9
2.30947E+11,-2,1,1,0,-1,-3,1,-2,10
2.30947E+11,-1,-5,0,-1,0,0,-1,2,11
2.30947E+11,2,-1,-1,2,-1,-1,1,-1,12
2.30947E+11,-4,-3,-1,0,0,-2,-1,-4,13
2.30947E+11,-2,1,-2,-3,-1,0,-3,-1,14
2.30947E+11,-2,4,-1,-1,0,-1,1,0,15
2.30947E+11,-2,-2,-3,1,0,-1,-2,1,16
2.30947E+11,2,1,0,-1,-6,-3,0,0,17
2.30947E+11,-1,-2,-1,-1,0,0,-1,0,18
2.30947E+11,2,2,0,-2,0,-2,0,-2,19
2.30947E+11,-1,-1,-2,-4,-3,1,-3,-2,20
2.30947E+11,2,1,2,1,-1,-2,-1,-2,21
2.30947E+11,-3,-5,1,-1,-2,-2,-3,4,22
2.30947E+11,1,-3,-2,0,-3,0,2,0,23
2.30947E+11,0,0,0,1,-2,2,-1,1,24
2.30947E+11,0,0,-2,0,3,-1,-4,-1,25
2.30947E+11,-1,1,-1,0,0,0,0,-4,26
2.30947E+11,-4,-3,1,-2,-3,-1,-2,2,27
2.30947E+11,-1,-1,-4,-2,-2,-1,1,-1,28
2.30947E+11,-2,-3,-3,-3,-1,-2,0,0,29
2.30947E+11,1,-3,0,1,3,-1,0,1,30
2.30947E+11,-3,0,-2,-3,-2,0,-1,-3,31
2.30947E+11,-1,1,0,0,-2,-2,-1,-3,32
2.30947E+11,-5,0,-1,-2,1,-1,1,-1,33
2.30947E+11,-1,3,-4,0,0,-1,-1,0,34
2.30947E+11,-1,-2,-2,-2,-7,-2,0,-4,35
2.30947E+11,1,-2,2,-2,4,-2,0,0,36
2.30947E+11,1,-3,1,-1,-2,0,0,-2,37
2.30947E+11,-1,-1,-1,0,0,0,-2,2,38
2.30947E+11,-1,-1,0,0,4,0,-1,-2,39
2.30947E+11,-2,-1,-2,-1,2,1,-2,1,40
2.30947E+11,3,0,0,-1,-4,-5,-3,-2,41
2.30947E+11,1,-1,-3,-1,-1,-2,2,-1,42
2.30947E+11,0,1,2,-2,2,-3,-1,0,43
2.30947E+11,-5,-5,-2,1,-2,0,1,-1,44
2.30947E+11,-1,1,1,1,0,-1,-2,-2,45
2.30947E+11,-1,-1,2,-2,-4,-1,0,-1,46
2.30947E+11,0,-2,-1,-2,-1,-3,-1,1,47
2.30947E+11,-2,0,0,-3,-2,0,2,-1,48
2.30947E+11,2,-3,-2,0,-1,2,0,-1,49
2.30947E+11,2,1,1,0,0,-2,-3,2,50
2.30947E+11,-2,1,-2,3,5,0,1,0,51
2.30947E+11,-5,1,0,-3,-5,-3,-3,-1,52
2.30947E+11,-2,-3,-1,-1,2,-2,-2,-1,53
2.30947E+11,2,0,-2,-4,-4,1,1,-3,54
2.30947E+11,-3,-1,-1,1,1,0,-1,-2,55
2.30947E+11,-1,-2,-1,0,2,-1,0,0,56
2.30947E+11,1,-1,0,-1,1,-2,-1,-2,57
2.30947E+11,-1,-1,-1,-1,-1,0,-1,0,58
2.30947E+11,0,-2,-3,-1,-3,-1,0,-1,59
2.30947E+11,-1,-4,1,-2,-2,-1,-1,0,60
2.30947E+11,2,0,-2,-2,-1,2,0,2,61
2.30947E+11,-1,1,1,1,0,-1,-2,-1,62
2.30947E+11,1,-1,-1,-1,-2,0,-1,0,63
2.30947E+11,1,0,-1,-2,0,-2,0,3,64
2.30947E+11,-4,-3,-1,2,1,0,-2,1,65
2.30947E+11,-4,-3,-4,-2,-3,0,1,0,66
2.30947E+11,3,0,0,1,1,-1,-3,-1,67
2.30947E+11,0,-3,-1,-2,1,-1,-6,-3,68
2.30947E+11,-7,-2,-3,0,-7,-3,0,1,69
2.30947E+11,-1,-1,0,-1,-2,0,-3,-1,70
2.30947E+11,-2,-1,-1,-1,-2,-1,-2,2,71
2.30947E+11,1,-1,-1,0,0,3,-2,-2,72
2.30947E+11,-2,0,-2,-4,0,-1,0,-2,73
2.30947E+11,-1,-2,1,-1,-1,-1,0,0,74
2.30947E+11,-3,0,-1,-1,-3,-2,-1,-2,75
2.30947E+11,-1,1,-2,0,-3,-1,2,1,76
2.30947E+11,0,-2,-2,-1,1,-3,1,-3,77
2.30947E+11,0,-4,-2,-1,1,1,1,0,78
2.30947E+11,-1,0,1,-1,1,-1,-1,-1,79
2.30947E+11,0,-2,-1,1,-2,-3,3,-1,80
2.30947E+11,-3,-1,2,-1,-1,0,-1,-2,81
2.30947E+11,-2,0,0,-1,-2,-2,-2,-3,82
2.30947E+11,-2,1,-1,0,-1,0,-1,0,83
2.30947E+11,3,-1,-3,0,-2,-3,1,1,84
2.30947E+11,2,1,-4,-1,-1,-1,-1,1,85
2.30947E+11,-1,1,-3,-1,1,1,1,-1,86
2.30947E+11,2,-4,-1,-2,2,-1,-1,1,87
2.30947E+11,-3,0,-2,-2,-4,0,0,1,88
2.30947E+11,-2,-1,-1,1,3,1,0,-3,89
2.30947E+11,1,-1,-1,-3,-4,-1,-3,0,90
2.30947E+11,-5,-2,-1,0,-1,0,1,-2,91
2.30947E+11,-1,-3,1,-2,0,0,-3,-1,92
2.30947E+11,-1,-1,-2,-1,-2,-1,-3,2,93
2.30947E+11,-2,0,-1,-1,-1,1,0,1,94
2.30947E+11,1,-3,-2,0,0,0,-1,-2,95
2.30947E+11,0,1,1,2,-3,1,-1,-2,96
2.30947E+11,-1,-1,1,-2,-3,0,-1,-2,97
2.30947E+11,-3,0,-2,-1,0,-3,-1,0,98
2.30947E+11,2,2,-1,-1,-1,-1,1,2,99
2.30947E+11,0,0,-2,-1,2,0,0,-2,100
2.30947E+11,1,-2,-2,2,1,-3,0,0,101
2.30947E+11,-4,1,1,-1,0,-1,0,3,102
2.30947E+11,-3,-2,-2,-1,2,-1,0,-2,103
2.30947E+11,-2,-1,-2,-1,0,-1,-4,-2,104
2.30947E+11,1,4,3,-1,0,1,0,2,105
2.30947E+11,1,-1,-1,-2,0,-4,-4,-2,106
2.30947E+11,-3,-2,0,0,-1,-1,-2,0,107
2.30947E+11,0,2,-1,-2,-2,-4,0,1,108
2.30947E+11,0,1,1,-1,-1,1,3,-2,109
2.30947E+11,1,-2,-2,2,-1,-2,0,-1,110
2.30947E+11,-1,0,1,0,-1,2,-2,-2,111
2.30947E+11,-1,1,1,-1,-1,-1,0,-2,112
2.30947E+11,0,-1,-2,-1,3,-3,1,-1,113
2.30947E+11,-2,-2,-2,-1,0,0,-1,-3,114
2.30947E+11,-1,-2,-2,-2,0,-1,1,-2,115
2.30947E+11,-2,-1,-2,-2,0,-1,-1,-1,116
2.30947E+11,-4,0,-4,-2,-2,2,-3,1,117
2.30947E+11,-1,-2,1,-1,-1,0,-2,-1,118
2.30947E+11,2,-2,1,-1,2,0,-1,-1,119
2.30947E+11,0,0,1,-3,-5,-3,0,0,120
2.30947E+11,0,-1,-1,0,-3,-3,-4,-2,121
2.30947E+11,0,2,0,2,0,-1,-1,0,122
2.30947E+11,0,2,-1,-2,-4,-2,4,1,123
2.30947E+11,-1,-1,-1,1,0,0,-3,1,124
2.30947E+11,-2,-4,-1,-1,-2,-1,-2,-3,125
2.30947E+11,1,1,0,0,1,0,0,-1,126
2.30947E+11,0,-3,-3,-2,-4,-2,-5,0,127
2.30947E+11,-2,-1,-1,-1,0,-1,0,-1,128
2.30947E+11,-3,-4,-2,0,1,-2,4,-1,129
2.30947E+11,-1,-2,0,-1,-2,0,-2,-2,130
2.30947E+11,1,2,-2,0,0,-1,-2,-1,131
2.30947E+11,-5,-4,-1,0,1,-1,-1,-1,132
2.30947E+11,1,-1,2,-3,0,-2,0,-1,133
2.30947E+11,-3,0,-3,-3,0,2,1,1,134
2.30947E+11,0,0,-1,0,-3,-3,0,-2,135
2.30947E+11,-1,0,-3,2,-2,0,0,0,136
2.30947E+11,1,-2,-1,0,-2,-1,-1,0,137
2.30947E+11,3,1,-2,-1,-1,-1,0,-1,138
2.30947E+11,-3,0,1,-1,1,1,-1,-4,139
2.30947E+11,2,0,0,0,0,-3,0,-3,140
2.30947E+11,-1,0,-2,1,0,-2,0,-2,141
2.30947E+11,-2,2,0,0,-6,-1,3,0,142
2.30947E+11,0,-2,-2,-2,0,-1,0,1,143
2.30947E+11,-2,-1,-1,0,0,-2,-1,-3,144
2.30947E+11,-1,-3,0,-2,-2,0,0,0,145
2.30947E+11,1,-3,-1,-1,-6,-1,-1,0,146
2.30947E+11,-3,-1,0,2,3,-2,-1,-2,147
2.30947E+11,-1,3,2,0,-1,1,0,2,148
2.30947E+11,0,0,1,-2,2,-4,-1,0,149
2.30947E+11,-5,-3,-2,0,-1,-1,-1,-3,150
2.30947E+11,-1,-5,-2,-2,1,-1,-1,2,151
2.30947E+11,0,-2,-3,-1,-2,0,-6,-3,152
2.30947E+11,-2,2,0,2,-1,2,-4,-1,153
2.30947E+11,0,-4,2,0,1,-1,0,-2,154
2.30947E+11,-2,-1,-1,-1,0,1,0,0,155
2.30947E+11,1,-1,-1,-1,1,0,0,-2,156
2.30947E+11,1,0,-1,-3,-4,-1,-1,-1,157
2.30947E+11,-2,-3,0,-1,1,0,-1,0,158
2.30948E+11,-3,-2,0,-1,-1,-2,-2,-2,159
2.30948E+11,3,0,-1,-2,1,0,0,-1,160
2.30948E+11,0,-1,-1,-2,-1,-2,1,0,161
2.30948E+11,-1,1,-1,-3,1,-2,-1,-4,162
2.30948E+11,-2,-3,-3,-3,-4,0,-2,-5,163
2.30948E+11,-3,-3,-1,-2,-4,0,-1,2,164
2.30948E+11,-4,-2,-1,0,-1,0,-2,-2,165
2.30948E+11,1,-2,0,0,-2,-3,1,1,166
2.30948E+11,-3,-1,-2,-1,0,-2,-2,0,167
2.30948E+11,-3,0,-1,-1,-2,0,-1,-1,168
2.30948E+11,-4,-1,-3,-1,1,2,-3,0,169
2.30948E+11,0,0,-1,-1,-4,-2,0,2,170
2.30948E+11,1,-2,0,-1,-4,-2,-1,-1,171
2.30948E+11,-3,0,-1,-2,1,-1,-3,-1,172
2.30948E+11,-3,0,-2,1,-1,0,-2,-2,173
2.30948E+11,-2,-4,-3,0,1,1,-3,-1,174
2.30948E+11,0,1,1,0,-2,0,0,-1,175
2.30948E+11,2,-1,-1,0,-3,-2,2,0,176
2.30948E+11,-2,1,0,-2,0,-3,2,2,177
2.30948E+11,1,1,-1,0,1,0,-2,-1,178
2.30948E+11,0,1,-1,-1,0,-1,1,-1,179
2.30948E+11,1,-5,-2,1,-1,-2,-3,-1,180
2.30948E+11,0,-1,0,1,0,0,1,-2,181
2.30948E+11,0,3,0,-1,1,-3,0,-2,182
2.30948E+11,2,-1,-2,1,1,2,-1,1,183
2.30948E+11,0,0,-1,-3,-4,-4,-1,-1,184
2.30948E+11,-2,0,-1,0,-1,0,-2,1,185
2.30948E+11,0,-1,-2,-2,1,-2,-2,-4,186
2.30948E+11,1,-1,1,-1,-2,0,0,-2,187
2.30948E+11,-1,-3,-2,-1,3,0,-1,-2,188
2.30948E+11,-1,-3,-1,0,-2,-2,-2,0,189
2.30948E+11,-2,-4,-1,-1,1,2,-3,-1,190
2.30948E+11,-1,1,-3,-1,-3,-3,1,0,191
2.30948E+11,1,2,1,-1,-1,-2,1,0,192
2.30948E+11,1,-1,0,-1,-2,0,0,1,193
2.30948E+11,-1,1,1,0,-1,-1,0,-3,194
2.30948E+11,0,-4,0,-4,-1,0,-3,-2,195
2.30948E+11,0,-2,-2,-2,1,1,-1,-2,196
2.30948E+11,-1,-1,-4,-1,-2,1,0,-2,197
2.30948E+11,-2,0,-1,0,0,0,0,0,198
2.30948E+11,-1,3,0,1,-1,-2,-1,-1,199
2.30948E+11,-3,-1,-2,0,-1,0,-2,-1,200
2.30948E+11,1,-2,0,2,-2,0,1,-3,201
2.30948E+11,-1,0,-4,-1,-2,-2,1,1,202
2.30948E+11,-4,-3,-3,-1,2,-1,-1,-3,203
2.30948E+11,-1,-3,0,-2,-2,-1,0,-3,204
2.30948E+11,-1,-2,-2,-1,-2,1,0,-1,205
2.30948E+11,-5,-3,0,-2,-4,-1,1,-1,206
2.30948E+11,0,0,1,2,1,0,-1,1,207
2.30948E+11,1,-3,-2,-2,0,0,0,0,208
2.30948E+11,2,-2,2,-1,1,-1,-2,0,209
2.30948E+11,0,0,-2,-2,-2,0,2,-1,210
2.30948E+11,-1,-2,-1,0,-3,-2,-2,0,211
2.30948E+11,-4,-3,-2,-2,1,-1,1,0,212
2.30948E+11,-1,-3,0,-2,1,-3,-1,1,213
2.30948E+11,1,2,-3,-1,1,-1,-4,0,214
2.30948E+11,-3,1,-2,-1,-1,-2,0,0,215
2.30948E+11,-1,1,0,3,1,-1,2,-1,216
2.30948E+11,-4,-2,-2,-2,-3,0,-1,0,217
2.30948E+11,-1,1,-1,-3,-1,-1,1,-3,218
2.30948E+11,0,1,-2,-2,-1,1,-2,0,219
2.30948E+11,-2,-1,1,-1,-2,-1,-2,0,220
2.30948E+11,-1,0,0,0,-1,-2,-3,-4,221
2.30948E+11,1,-1,2,0,0,0,1,-1,222
2.30948E+11,0,0,-3,-2,-3,1,0,-3,223
2.30948E+11,-3,0,-3,0,-2,2,1,1,224
2.30948E+11,1,0,-3,-1,-1,-2,-3,-2,225
2.30948E+11,-2,-3,-3,-1,-1,0,-4,0,226
2.30948E+11,1,-1,1,-1,1,-4,1,0,227
2.30948E+11,0,-2,-1,0,-1,-4,0,0,228
2.30948E+11,1,-1,-3,-3,-1,-3,0,0,229
2.30948E+11,1,-4,0,-1,-2,0,0,-2,230
2.30948E+11,0,-2,0,-2,1,-1,-1,-2,231
2.30948E+11,-3,0,0,1,-3,1,-2,3,232
2.30948E+11,-1,1,-1,-1,1,-1,0,0,233
2.30948E+11,1,-1,-1,-1,1,-1,-2,-1,234
2.30948E+11,-2,-2,1,0,0,-2,2,-1,235
2.30948E+11,-2,1,3,-1,1,-2,0,-3,236
2.30948E+11,2,1,0,1,1,-1,-1,-1,237
2.30948E+11,-1,-2,-1,-2,-4,-2,-4,0,238
2.30948E+11,-2,0,2,0,-3,3,0,1,239
2.30948E+11,-4,-1,-1,-2,0,-1,-2,-1,240
2.30948E+11,-2,-1,-3,-2,-3,0,0,2,241
2.30948E+11,0,1,-1,-2,-1,-1,1,-2,242
2.30948E+11,0,-4,-4,-1,0,1,-2,-2,243
2.30948E+11,0,-6,-1,-1,0,0,2,1,244
2.30948E+11,-2,0,0,0,1,-1,-3,2,245
2.30948E+11,2,-1,0,0,-2,-2,-3,0,246
2.30948E+11,-1,-1,-3,0,1,-1,0,1,247
2.30948E+11,-2,-2,-1,-2,-1,-1,-2,-2,248
2.30948E+11,-1,-2,0,0,-2,-1,0,-4,249
2.30948E+11,-1,0,1,2,2,1,-1,1,250
2.30948E+11,0,-1,-2,-4,-5,-3,-1,-3,251
2.30948E+11,1,-2,-3,0,-1,-2,-3,0,252
2.30948E+11,-4,-1,-1,0,1,-1,-1,1,253
2.30948E+11,2,0,1,0,2,-2,1,-2,254
2.30948E+11,-2,-1,-2,0,-2,-1,-1,3,255
2.30948E+11,1,-2,-1,-1,-3,-1,0,-5,256
2.30948E+11,0,0,-1,-1,-2,-2,2,-3,257
2.30948E+11,-1,0,-2,0,-2,0,-1,-2,258
2.30948E+11,-2,1,-2,1,-3,-1,-2,-3,259
2.30948E+11,-1,1,-3,-1,0,-2,2,0,260
2.30948E+11,-1,-2,-1,0,-1,1,-1,-1,261
2.30948E+11,-2,-3,-4,-3,-3,0,-1,1,262
2.30948E+11,-1,-2,2,-2,1,0,1,1,263
2.30948E+11,0,1,0,2,-2,1,-1,0,264
2.30948E+11,-1,-3,2,1,-1,-2,-1,-3,265
2.30948E+11,0,-4,-2,-3,0,-3,-2,0,266
2.30948E+11,0,-1,-2,0,-2,-2,-2,-3,267
2.30948E+11,-1,-3,-3,0,0,-1,1,1,268
2.30948E+11,1,2,-3,-4,0,-1,-2,-1,269
2.30948E+11,-1,1,0,-1,-3,1,-1,-2,270
2.30948E+11,-1,0,0,-1,1,-2,-1,-1,271
2.30948E+11,-1,0,0,-4,-1,-2,-1,-3,272
2.30948E+11,0,-1,0,0,-1,-1,1,-3,273
2.30948E+11,-2,1,-1,-2,-2,-1,-1,0,274
2.30948E+11,-1,-1,0,0,-3,-2,-1,-1,275
2.30948E+11,-3,0,1,1,1,-2,-2,0,276
2.30948E+11,-5,-4,-1,-1,-2,0,-3,-1,277
2.30948E+11,-2,2,-2,-1,-1,-2,0,-5,278
2.30948E+11,2,1,-1,-3,-1,-2,-3,-1,279
2.30948E+11,-1,-2,-1,-1,-2,0,-2,2,280
2.30948E+11,1,0,1,-1,-1,1,1,1,281
2.30948E+11,-1,0,-1,1,4,0,0,0,282
2.30948E+11,2,-2,0,-2,-5,-1,-5,-2,283
2.30948E+11,0,-1,-2,-3,-3,1,-2,-3,284
2.30948E+11,1,-1,-3,-1,-1,0,0,0,285
2.30948E+11,-2,-4,0,-2,0,-1,-2,1,286
2.30948E+11,-1,0,0,-2,0,0,1,1,287
2.30948E+11,-1,2,1,-1,-1,0,0,0,288
2.30948E+11,1,-1,0,1,-4,0,1,-3,289
2.30948E+11,-2,-2,-2,-2,-4,0,0,0,290
2.30948E+11,-3,-3,-2,0,0,1,-4,-1,291
2.30948E+11,-2,-1,0,-1,-2,-1,0,-2,292
2.30948E+11,-4,-1,-2,-1,1,-2,-3,-1,293
2.30948E+11,1,-3,-2,1,-2,-1,-1,0,294
2.30948E+11,0,0,0,0,-1,0,0,-2,295
2.30948E+11,-1,-4,-3,-1,0,0,-2,-2,296
2.30948E+11,-3,3,-1,0,1,-3,1,-2,297
2.30948E+11,1,-1,0,-2,-2,-3,-1,-2,298
2.30948E+11,0,1,-2,0,1,-1,-2,1,299
2.30948E+11,0,-2,-1,-4,-3,-3,-1,2,300
2.30948E+11,0,-1,-3,-1,-3,2,-1,-2,301
2.30948E+11,-1,0,2,1,2,1,2,1,302
2.30948E+11,-4,-1,1,-2,-2,-1,1,0,303
2.30948E+11,3,0,0,-2,-4,-3,-2,-2,304
2.30948E+11,0,-1,-2,-2,-1,0,-2,1,305
2.30948E+11,0,0,-3,0,-2,-3,0,0,306
2.30948E+11,-4,-2,-3,0,1,-1,-3,-3,307
2.30948E+11,-3,1,-1,0,-2,0,-1,-2,308
2.30948E+11,2,-1,-1,-3,0,-5,-2,0,309
2.30948E+11,-3,-3,-2,-2,-3,2,-2,-2,310
2.30948E+11,-2,-1,1,2,1,0,-3,2,311
2.30948E+11,-1,0,1,0,1,-2,-3,0,312
2.30948E+11,-3,-2,-1,0,0,-2,0,-2,313
2.30948E+11,-1,-1,0,0,-1,-1,1,1,314
2.30948E+11,-2,-1,0,-1,-2,-1,1,0,315
2.30948E+11,-1,-1,-1,0,0,1,1,-1,316
2.30948E+11,3,1,-1,0,-2,2,-2,0,317
2.30948E+11,-3,-1,-1,-4,-1,-2,3,1,318
2.30948E+11,-3,-3,-2,0,0,-2,-2,-1,319
2.30948E+11,-1,0,0,-1,-1,-2,-1,0,320
2.30948E+11,0,-4,0,-1,-1,2,-2,-4,321
2.30948E+11,2,1,-1,-1,-3,-2,-1,1,322
2.30948E+11,0,0,-2,0,0,-1,2,-3,323
2.30948E+11,1,0,-1,-2,2,1,0,2,324
2.30948E+11,-4,1,-3,0,-1,-2,0,2,325
2.30948E+11,0,-1,-1,-2,0,1,-1,-1,326
2.30948E+11,-3,0,0,0,0,-2,-2,1,327
2.30948E+11,1,-1,-2,-1,-4,-3,-3,-3,328
2.30948E+11,0,0,1,-1,1,-2,0,1,329
2.30948E+11,-1,-5,-1,-1,-2,2,1,-4,330
2.30948E+11,2,1,-1,-1,0,-2,-2,-1,331
2.30948E+11,-2,-1,-2,0,1,1,0,2,332
2.30948E+11,-1,0,0,0,1,-2,0,1,333
2.30948E+11,-1,-2,-2,0,0,-2,-2,-1,334
2.30948E+11,0,-1,-3,-3,-2,2,-1,-3,335
2.30948E+11,0,2,1,0,-2,-2,-1,-3,336
2.30948E+11,0,-3,0,-2,-1,-2,-1,-2,337
2.30948E+11,0,3,-1,-1,0,1,0,0,338
2.30948E+11,-1,-1,0,-1,0,0,0,0,339
2.30948E+11,-3,0,-1,-2,-3,-2,1,-2,340
2.30948E+11,-1,0,-1,-2,-1,0,-1,2,341
2.30948E+11,-2,0,0,-2,0,-2,1,0,342
2.30948E+11,3,-1,-1,0,0,-1,-2,-2,343
2.30948E+11,-2,0,-2,-1,-1,-1,1,0,344
2.30948E+11,-6,-2,-2,-1,1,0,-3,-3,345
2.30948E+11,0,-3,-1,-1,0,-2,2,-2,346
2.30948E+11,3,-2,-2,-2,0,-2,1,-1,347
2.30948E+11,1,-3,0,-1,-3,0,-2,-1,348
2.30948E+11,-1,-4,-1,-2,-5,-2,0,1,349
2.30948E+11,-2,-1,-1,2,3,-2,0,0,350
2.30948E+11,-3,1,-3,-4,-3,-1,-3,4,351
2.30948E+11,0,-2,-1,1,0,1,-2,-1,352
2.30948E+11,0,-1,0,1,2,0,-1,2,353
2.30948E+11,-3,-2,-2,1,0,-1,-1,0,354
2.30948E+11,0,-3,1,-1,-1,-3,2,-2,355
2.30948E+11,-2,0,1,1,-1,1,3,2,356
2.30949E+11,-1,2,-1,-2,-2,2,-1,-1,357
2.30949E+11,-1,1,0,-1,0,-1,-4,-1,358
2.30949E+11,-1,-2,0,1,-2,0,-1,0,359
2.30949E+11,1,-2,0,-3,0,-3,-1,-2,360
2.30949E+11,0,-2,-3,-1,-3,-2,0,-5,361
2.30949E+11,-3,-1,-3,-1,0,-2,-1,1,362
2.30949E+11,-2,-1,-3,0,1,0,-1,0,363
2.30949E+11,-1,2,0,-2,-4,-3,-2,-1,364
2.30949E+11,-1,-3,-2,0,-3,0,-1,0,365
2.30949E+11,-3,-1,-2,0,-3,-3,-2,-2,366
2.30949E+11,-3,0,-2,-2,5,-2,1,-2,367
2.30949E+11,-3,0,-2,-2,-2,-2,0,-2,368
2.30949E+11,-2,0,-1,-2,-1,-3,1,2,369
2.30949E+11,-3,-1,2,-2,-5,1,-1,-4,370
2.30949E+11,-1,-4,1,-1,1,0,0,-1,371
2.30949E+11,1,-1,-4,1,3,0,-1,-3,372
2.30949E+11,2,0,0,1,1,-1,-1,1,373
2.30949E+11,2,-2,-2,1,0,0,-3,2,374
2.30949E+11,-1,-3,-1,-2,-5,-3,0,-3,375
2.30949E+11,-1,-3,-1,1,2,-1,-3,-3,376
2.30949E+11,-1,-4,0,1,0,0,0,0,377
2.30949E+11,2,-3,3,-3,-1,0,0,-4,378
2.30949E+11,-2,0,-1,-2,-2,-3,0,1,379
2.30949E+11,1,-1,-2,1,1,0,-3,-1,380
2.30949E+11,1,3,-1,-1,2,-2,0,-1,381
2.30949E+11,-1,0,-3,-1,0,1,-1,0,382
2.30949E+11,1,-2,1,-1,1,1,-1,0,383
2.30949E+11,0,-3,0,0,0,0,-1,-2,384
2.30949E+11,-2,-2,1,-1,-2,-1,-2,1,385
2.30949E+11,1,2,-2,-2,-1,-1,1,-1,386
2.30949E+11,-2,0,-2,0,-4,-1,-3,0,387
2.30949E+11,-2,-3,-1,-1,-1,-1,-3,-3,388
2.30949E+11,3,-1,0,-1,-1,1,2,-3,389
2.30949E+11,-3,-1,-1,1,0,-2,-3,1,390
2.30949E+11,-1,1,-2,-2,-5,1,0,-2,391
2.30949E+11,-4,-1,1,0,2,-2,-2,0,392
2.30949E+11,-1,4,-3,-5,-3,-4,-1,2,393
2.30949E+11,-2,-3,1,0,3,-2,-3,0,394
2.30949E+11,-2,0,-2,-2,-3,-1,-2,-5,395
2.30949E+11,1,0,-4,-2,-1,0,2,1,396
2.30949E+11,2,1,0,1,0,1,-3,-3,397
2.30949E+11,0,0,0,0,-1,-3,-2,-1,398
2.30949E+11,-2,-4,0,-1,-1,-1,-1,-1,399
2.30949E+11,-2,-2,0,1,0,1,-2,2,400
2.30949E+11,0,-4,0,1,3,2,0,-4,401
2.30949E+11,-2,-1,-1,-4,-3,1,1,-2,402
2.30949E+11,-2,-1,0,1,-1,-3,1,1,403
2.30949E+11,0,1,-2,-2,-5,1,-1,0,404
2.30949E+11,-2,-2,-1,-1,-1,-1,0,-1,405
2.30949E+11,-2,1,-1,-2,-1,0,-1,-1,406
2.30949E+11,-3,2,-2,1,-2,-1,2,-1,407
2.30949E+11,0,1,-1,0,1,-1,2,2,408
2.30949E+11,-1,-5,0,0,-2,-2,2,-2,409
2.30949E+11,1,2,0,1,1,1,0,-1,410
2.30949E+11,-1,0,0,-4,-1,-1,-2,-4,411
2.30949E+11,-1,-1,-1,-4,1,-2,-1,-1,412
2.30949E+11,-2,1,-3,-1,0,1,-3,-3,413
2.30949E+11,1,-2,-1,-1,-4,-3,0,-1,414
2.30949E+11,-1,1,-1,1,3,-3,-1,0,415
2.30949E+11,0,1,0,0,-1,1,3,-1,416
2.30949E+11,-3,0,-2,-3,-1,1,-1,-1,417
2.30949E+11,-2,-1,-1,-2,-3,0,-4,-4,418
2.30949E+11,3,-1,-2,0,-2,-1,-3,-1,419
2.30949E+11,-1,-1,1,-5,-2,-1,-1,-1,420
2.30949E+11,-3,-2,-1,-1,1,0,-2,4,421
2.30949E+11,-1,1,-2,1,-1,-1,0,-2,422
2.30949E+11,-3,-1,1,0,0,1,1,-2,423
2.30949E+11,3,-1,1,-1,2,-2,0,1,424
2.30949E+11,0,-1,-2,-1,2,0,-2,-2,425
2.30949E+11,-4,-1,1,-4,-2,-1,3,1,426
2.30949E+11,-2,-1,-2,1,0,1,-2,-1,427
2.30949E+11,1,1,-1,0,0,0,-1,-2,428
2.30949E+11,-2,-1,-1,0,0,0,-1,1,429
2.30949E+11,1,-2,-1,-3,-5,-1,-2,0,430
2.30949E+11,3,-1,1,-1,-2,-2,-4,-1,431
2.30949E+11,-4,-4,-2,0,1,-1,-2,1,432
2.30949E+11,0,3,1,0,0,1,2,1,433
2.30949E+11,-1,-1,2,0,1,-2,0,0,434
2.30949E+11,0,-3,-3,-1,0,1,0,-3,435
2.30949E+11,-3,0,1,1,-2,-2,-2,1,436
2.30949E+11,-1,-1,-2,-3,-3,0,-1,1,437
2.30949E+11,-3,0,-1,0,0,-3,-2,2,438
2.30949E+11,-1,-2,1,1,-1,0,1,-1,439
2.30949E+11,1,-1,-2,0,0,0,-2,-2,440
2.30949E+11,1,-4,-1,-2,-3,-2,0,-3,441
2.30949E+11,0,0,-1,-2,1,0,0,-1,442
2.30949E+11,0,-1,-2,0,-1,-2,-3,0,443
2.30949E+11,-5,-2,-1,1,0,0,-5,-2,444
2.30949E+11,-2,-2,-1,-3,-2,0,1,0,445
2.30949E+11,5,-2,-1,3,5,0,0,-2,446
2.30949E+11,3,0,0,-3,-4,-1,0,-2,447
2.30949E+11,1,-1,0,0,-3,-1,-2,1,448
2.30949E+11,1,0,0,-1,0,-2,-4,-1,449
2.30949E+11,-2,-2,0,-1,-1,-1,-3,1,450
2.30949E+11,-4,-1,1,-1,0,0,-1,-2,451
2.30949E+11,-2,-2,0,1,0,-1,2,-3,452
2.30949E+11,-5,-1,0,-1,-1,0,0,0,453
2.30949E+11,-3,-6,-2,1,0,-1,0,-2,454
2.30949E+11,0,1,0,0,0,2,1,-2,455
2.30949E+11,0,-3,-2,-2,-3,-2,-2,1,456
2.30949E+11,-3,-3,-1,1,-4,-2,0,-2,457
2.30949E+11,1,-2,-4,-1,-1,-1,2,-1,458
2.30949E+11,-1,0,1,-1,3,-3,-1,0,459
2.30949E+11,-3,-3,-1,0,0,-1,2,-1,460
2.30949E+11,-2,0,0,1,2,1,3,-3,461
2.30949E+11,1,2,0,-2,-2,-1,-3,0,462
2.30949E+11,0,-1,0,1,-2,-1,-1,1,463
2.30949E+11,3,3,-1,-2,0,-1,1,-1,464
2.30949E+11,-1,0,-3,-3,-5,-1,-2,-1,465
2.30949E+11,-1,-1,-2,-2,-2,0,-3,-2,466
2.30949E+11,-2,-6,-1,0,-4,0,0,-2,467
2.30949E+11,1,1,0,-1,-2,-1,1,-1,468
2.30949E+11,1,-1,-1,-1,0,-2,-3,-1,469
2.30949E+11,-3,0,-2,-2,-6,-1,1,-3,470
2.30949E+11,-1,0,0,1,-1,-2,-2,1,471
2.30949E+11,-3,-1,-4,-5,-4,0,-1,-3,472
2.30949E+11,0,-2,0,-1,-1,-2,1,1,473
2.30949E+11,0,-3,0,2,3,1,-2,-3,474
2.30949E+11,-1,-1,-2,-2,0,0,-1,-1,475
2.30949E+11,-1,-2,-3,1,0,-1,-1,-3,476
2.30949E+11,-4,-1,-3,-1,0,-2,-3,0,477
2.30949E+11,-4,0,2,0,-2,-1,-1,0,478
2.30949E+11,1,-2,-2,0,1,1,1,0,479
2.30949E+11,0,-5,-2,1,0,-1,-2,-2,480
2.30949E+11,2,-1,-2,-1,-2,-1,-2,2,481
2.30949E+11,-2,-2,-2,1,-1,1,1,1,482
2.30949E+11,-2,0,1,0,1,-2,-1,-2,483
2.30949E+11,-1,0,0,0,-4,-1,-1,0,484
2.30949E+11,-2,-1,1,1,0,1,-2,1,485
2.30949E+11,-4,1,-3,-1,0,-2,1,-1,486
2.30949E+11,0,3,-1,-4,0,0,-1,0,487
2.30949E+11,1,-3,1,-2,-2,0,0,1,488
2.30949E+11,0,-3,-3,-1,0,-1,-4,0,489
2.30949E+11,4,0,-1,-2,-1,-1,-1,0,490
2.30949E+11,1,-1,-3,0,0,-1,0,-2,491
2.30949E+11,-1,0,-2,0,-1,-2,-2,0,492
2.30949E+11,-1,2,-1,-1,1,-2,-1,-3,493
2.30949E+11,-1,-4,1,1,0,-2,-1,0,494
2.30949E+11,-1,-1,-2,-1,-3,-1,0,1,495
2.30949E+11,-1,2,2,0,1,-2,-4,-3,496
2.30949E+11,-3,-2,1,-1,-1,0,-2,-1,497
2.30949E+11,-4,0,-2,-2,-2,-2,1,0,498
2.30949E+11,-1,-1,-1,1,-3,-2,0,1,499
2.30949E+11,-2,-5,-3,-4,-2,2,-1,-1,500
2.30949E+11,-1,-1,-2,-1,1,-1,-1,-2,501
2.30949E+11,0,-1,-2,-2,4,-2,-3,-3,502
2.30949E+11,-3,-3,-4,-3,-4,0,-1,-4,503
2.30949E+11,0,3,-1,1,-1,-2,-3,2,504
2.30949E+11,1,-2,-1,-1,0,2,1,1,505
2.30949E+11,-2,-3,-1,-2,-2,-1,-1,-1,506
2.30949E+11,0,0,-2,0,-1,-2,0,-1,507
2.30949E+11,-2,-2,-3,-1,0,-1,-2,0,508
2.30949E+11,-1,-1,0,0,0,-4,2,2,509
2.30949E+11,-1,1,0,-1,-3,-2,2,1,510
2.30949E+11,-3,-2,0,0,-1,1,-5,1,511
2.30949E+11,-1,2,0,0,-2,-2,0,-2,512
2.30949E+11,-1,0,-1,1,-4,1,1,0,513
2.30949E+11,2,-3,-3,-2,-3,0,-4,0,514
2.30949E+11,1,0,2,0,-2,0,0,1,515
2.30949E+11,-3,-2,-1,-1,-1,0,-4,0,516
2.30949E+11,1,2,-2,-2,0,-2,3,-5,517
2.30949E+11,0,1,0,0,-5,-1,-2,-2,518
2.30949E+11,1,-3,-1,-2,3,-4,-4,-1,519
2.30949E+11,2,0,-1,2,0,-1,0,-2,520
2.30949E+11,-4,-3,0,0,-2,-2,-1,0,521
2.30949E+11,1,-2,-2,-1,-2,0,1,0,522
2.30949E+11,-1,0,-1,0,0,-1,0,0,523
2.30949E+11,-3,-2,-2,-5,0,-1,1,0,524
2.30949E+11,-3,-2,-2,0,-1,0,-3,-1,525
2.30949E+11,2,-1,1,1,2,-1,1,0,526
2.30949E+11,1,-2,-2,-3,-2,-2,0,-7,527
2.30949E+11,2,-1,-1,0,-2,-2,-1,0,528
2.30949E+11,1,-1,-1,-2,0,1,-3,1,529
2.30949E+11,-4,0,0,0,0,1,-1,-3,530
2.30949E+11,0,-1,-1,1,1,-2,-2,0,531
2.30949E+11,-1,-1,-1,-5,-1,1,-1,0,532
2.30949E+11,1,0,0,0,0,-1,-1,-4,533
2.30949E+11,-1,-2,-2,-1,2,-2,-2,0,534
2.30949E+11,-3,0,1,-2,-3,1,0,0,535
2.30949E+11,0,-1,0,0,-2,0,0,2,536
2.30949E+11,-4,1,-3,0,-6,-3,-1,0,537
2.30949E+11,-1,-2,-1,1,2,-1,-2,0,538
2.30949E+11,-1,-1,-1,-2,-1,1,-1,-2,539
2.30949E+11,-2,1,0,2,1,0,1,-1,540
2.30949E+11,-1,0,0,-3,-1,2,-2,-2,541
2.30949E+11,-1,-1,-2,-1,-2,-1,0,-4,542
2.30949E+11,-1,-1,1,-1,-1,-1,-1,0,543
2.30949E+11,-5,-2,1,-1,1,-2,0,-1,544
2.30949E+11,0,-3,-2,-1,0,-1,-1,-2,545
2.30949E+11,1,0,-2,-1,-1,2,1,0,546
2.30949E+11,-2,-2,-2,-1,-2,0,0,0,547
2.30949E+11,-2,0,-3,0,1,0,-2,-1,548
2.30949E+11,1,-2,-1,-3,-1,-2,-1,1,549
2.30949E+11,-3,-1,-1,-1,-1,-3,0,1,550
2.30949E+11,2,-3,-3,0,-2,-1,0,1,551
2.30949E+11,-1,1,-1,1,1,0,-1,2,552
2.30949E+11,-2,-1,0,-2,1,1,-2,-1,553
2.30949E+11,0,0,-1,-2,-6,-4,0,-1,554
2.30949E+11,-2,1,0,1,5,3,1,-3,555
2.30949E+11,2,0,-3,-4,-3,1,2,-3,556
2.3095E+11,1,-1,-1,0,0,-2,0,1,557
2.3095E+11,4,-3,-2,0,5,2,-3,1,558
2.3095E+11,-5,0,-2,-2,-9,-5,-2,-2,559
2.3095E+11,0,0,1,-1,-6,2,-1,-1,560
2.3095E+11,1,-3,0,3,1,3,3,1,561
2.3095E+11,-4,-1,1,-1,-2,-5,-2,-1,562
2.3095E+11,1,-1,-1,0,4,5,-2,-1,563
2.3095E+11,0,0,0,1,-4,0,-1,3,564
2.3095E+11,-2,-1,-1,-2,-2,-4,0,0,565
2.3095E+11,-3,0,-1,-1,1,0,0,-1,566
2.3095E+11,0,-2,0,0,0,-2,-3,-1,567
2.3095E+11,-1,-3,-2,0,3,0,1,-3,568
2.3095E+11,0,4,-2,-3,-5,-3,0,4,569
2.3095E+11,0,0,-2,2,0,12,1,1,570
2.3095E+11,0,0,-3,-3,-3,-11,-2,1,571
2.3095E+11,0,0,0,0,2,-4,-1,0,572
2.3095E+11,-1,-4,-3,-1,-1,-2,-3,-1,573
2.3095E+11,4,-1,-2,-2,-1,-5,-4,-4,574
2.3095E+11,-2,0,2,0,-2,2,2,1,575
2.3095E+11,-1,0,0,-2,-2,0,0,-1,576
2.3095E+11,-2,-1,1,0,2,0,2,-3,577
2.3095E+11,-5,-1,-2,-2,-6,-2,-2,-2,578
2.3095E+11,1,-4,-2,0,1,-2,-4,-3,579
2.3095E+11,3,-1,0,-2,-2,-3,-1,-1,580
2.3095E+11,-1,-1,0,1,11,1,0,1,581
2.3095E+11,0,1,2,0,-10,-1,-1,2,582
2.3095E+11,0,1,-2,-1,-2,0,-1,1,583
2.3095E+11,-4,-4,2,1,9,0,0,-1,584
2.3095E+11,3,1,-1,-1,-12,-8,1,-5,585
2.3095E+11,-3,-1,-1,-1,5,6,-3,0,586
2.3095E+11,-4,-1,-2,-4,-7,0,2,2,587
2.3095E+11,-1,-5,-3,-1,-3,0,1,-3,588
2.3095E+11,-5,0,-2,0,0,1,-2,0,589
2.3095E+11,-4,-2,-1,-1,1,-4,-1,-2,590
2.3095E+11,0,-3,-1,0,0,-1,-2,-5,591
2.3095E+11,-4,0,-4,2,-3,-1,-2,-2,592
2.3095E+11,0,-6,-2,-1,-2,2,0,0,593
2.3095E+11,1,3,0,-1,-4,0,1,2,594
2.3095E+11,-2,1,-1,0,5,0,-1,-3,595
2.3095E+11,1,-3,-1,-1,-5,-2,0,1,596
2.3095E+11,-2,0,-1,-2,8,1,-1,0,597
2.3095E+11,-1,1,0,3,-8,-4,-1,-2,598
2.3095E+11,-2,3,-1,-4,-8,-2,2,2,599
2.3095E+11,2,-1,1,2,-1,-2,-1,-2,600
2.3095E+11,3,-1,0,1,0,0,-3,-1,601
2.3095E+11,1,-1,0,-1,3,-2,0,0,602
2.3095E+11,-2,-5,-2,1,5,5,4,1,603
2.3095E+11,-1,0,-1,-2,-9,-9,-6,-5,604
2.3095E+11,-1,1,1,-1,4,3,1,-5,605
2.3095E+11,0,0,-2,0,0,-4,0,-3,606
2.3095E+11,-1,-1,0,2,-4,-2,2,-2,607
2.3095E+11,-2,-1,-1,-3,2,1,3,1,608
2.3095E+11,0,-3,-2,0,0,-2,-3,-2,609
2.3095E+11,0,-1,-2,-4,-3,1,-1,1,610
2.3095E+11,-3,0,-1,0,-4,-4,-5,-1,611
2.3095E+11,-1,0,0,-1,4,3,2,0,612
2.3095E+11,-4,0,-4,0,0,-1,1,2,613
2.3095E+11,0,-5,-1,-4,-17,-2,2,-1,614
2.3095E+11,-1,-1,-2,-1,3,-4,-2,-4,615
2.3095E+11,-3,0,-1,0,3,5,-2,1,616
2.3095E+11,0,2,0,-4,-15,-7,-4,2,617
2.3095E+11,-1,-1,-2,-2,5,4,0,0,618
2.3095E+11,-1,0,2,3,1,-3,-1,-1,619
2.3095E+11,-5,-2,0,-4,-6,0,-3,-2,620
2.3095E+11,2,-2,-1,-2,0,-4,0,-4,621
2.3095E+11,-1,-1,0,0,1,-2,0,-2,622
2.3095E+11,2,2,2,0,-1,3,0,2,623
2.3095E+11,2,0,-1,0,3,-1,3,1,624
2.3095E+11,-1,-1,0,-2,-3,4,-1,0,625
2.3095E+11,-3,-2,-4,0,3,-2,1,-2,626
2.3095E+11,-2,0,1,2,1,0,0,-1,627
2.3095E+11,2,-2,-4,-3,-2,-2,-1,0,628
2.3095E+11,-1,1,1,1,1,0,0,0,629
2.3095E+11,-1,-2,0,-2,1,1,-3,0,630
2.3095E+11,0,0,-1,-4,0,0,1,1,631
2.3095E+11,-1,-2,-1,-1,-1,2,0,-3,632
2.3095E+11,0,3,-2,-3,-14,-4,-4,0,633
2.3095E+11,-1,0,-1,0,5,-4,0,1,634
2.3095E+11,-2,-4,0,1,2,2,-1,-1,635
2.3095E+11,1,-1,0,-1,-6,0,0,1,636
2.3095E+11,0,-1,0,2,5,3,5,1,637
2.3095E+11,0,-1,-1,-2,5,-4,-5,-6,638
2.3095E+11,-1,1,-2,-2,-13,-4,-3,-5,639
2.3095E+11,-1,-3,-2,1,-3,-2,-1,-1,640
2.3095E+11,0,0,1,2,3,3,3,-1,641
2.3095E+11,-1,-1,0,-3,-8,-4,0,2,642
2.3095E+11,0,0,0,-2,-1,-2,3,4,643
2.3095E+11,-3,-5,2,1,11,1,-3,-1,644
2.3095E+11,-5,0,-1,-1,-13,-5,-2,-1,645
2.3095E+11,2,-1,-3,-1,1,0,-4,-9,646
2.3095E+11,3,-4,-2,0,4,-5,-2,2,647
2.3095E+11,0,-1,0,-4,-2,3,0,-3,648
2.3095E+11,1,-1,-2,1,8,-2,1,1,649
2.3095E+11,-2,1,0,-1,-1,1,3,1,650
2.3095E+11,-2,2,0,0,-6,1,-1,1,651
2.3095E+11,2,-1,-1,4,5,-3,-2,-1,652
2.3095E+11,-2,-4,-2,-7,-10,-6,-4,-4,653
2.3095E+11,1,-2,0,-1,1,-2,2,5,654
2.3095E+11,3,-1,0,1,4,-1,-1,-1,655
2.3095E+11,-2,3,0,-1,-7,-1,2,3,656
2.3095E+11,1,-2,-1,1,8,3,0,0,657
2.3095E+11,-4,-3,-1,2,4,0,-2,-3,658
2.3095E+11,-3,-1,-3,-6,-17,2,-1,3,659
2.3095E+11,-3,1,-3,-1,-1,-7,-3,0,660
2.3095E+11,4,-3,-1,-1,-5,0,-1,-1,661
2.3095E+11,0,0,-1,-1,7,7,-2,1,662
2.3095E+11,0,-3,1,0,11,-1,-2,-2,663
2.3095E+11,-3,2,-3,-2,-6,-4,-3,-2,664
2.3095E+11,-1,-1,-2,-2,-1,1,5,-1,665
2.3095E+11,2,-1,-1,1,-2,0,-4,5,666
2.3095E+11,-3,-2,-3,1,0,-5,-6,-11,667
2.3095E+11,4,1,1,-1,-4,0,1,-1,668
2.3095E+11,-3,-1,-2,-2,13,-2,-3,-1,669
2.3095E+11,0,-3,-2,-3,-16,0,-1,-1,670
2.3095E+11,3,0,-1,3,3,-1,1,4,671
2.3095E+11,-1,0,0,-5,4,1,-2,-3,672
2.3095E+11,-1,0,2,-3,-1,1,-2,2,673
2.3095E+11,1,-2,0,0,-8,-8,-1,-2,674
2.3095E+11,-1,0,-1,-1,1,0,-4,-2,675
2.3095E+11,1,-1,-2,4,13,-2,-1,-2,676
2.3095E+11,-4,-3,-3,1,-13,-6,-5,-2,677
2.3095E+11,0,1,-1,-4,12,2,-1,-5,678
2.3095E+11,-1,-5,-2,2,-6,-5,1,1,679
2.3095E+11,1,1,-1,0,2,1,0,1,680
2.3095E+11,-1,-2,-2,-2,-3,-1,-1,-2,681
2.3095E+11,-1,-1,-2,-1,4,1,1,-2,682
2.3095E+11,-2,-1,1,-3,9,1,1,-3,683
2.3095E+11,-1,-2,-4,-4,-23,-5,-9,-6,684
2.3095E+11,0,-2,-1,0,0,-1,-3,-2,685
2.3095E+11,-3,-1,-1,-3,0,2,-1,1,686
2.3095E+11,-2,-1,0,1,4,3,1,-1,687
2.3095E+11,-3,-1,-3,-1,-7,-2,2,4,688
2.3095E+11,1,-1,2,-2,1,1,-1,-4,689
2.3095E+11,-5,1,-4,-1,-2,-7,-3,-4,690
2.3095E+11,-1,-1,-1,0,-5,0,1,0,691
2.3095E+11,4,-1,0,3,15,7,4,-1,692
2.3095E+11,0,0,-1,-2,-12,-1,3,1,693
2.3095E+11,1,-1,0,0,3,0,-2,0,694
2.3095E+11,-1,1,-5,-5,-2,0,-1,-4,695
2.3095E+11,-5,-4,-2,-3,-3,0,-1,-4,696
2.3095E+11,3,3,3,4,8,4,2,6,697
2.3095E+11,0,1,4,5,0,4,8,12,698
2.3095E+11,-1,2,1,1,-2,-6,-13,-7,699
2.3095E+11,-2,0,0,1,-14,-1,-1,-8,700
2.3095E+11,-5,-2,-3,-3,0,-1,-3,0,701
2.3095E+11,-1,-2,-4,-3,-7,-2,1,-4,702
2.3095E+11,0,-2,2,0,-1,3,2,4,703
2.3095E+11,-1,-1,-1,3,9,-1,0,-2,704
2.3095E+11,-2,-2,-3,-8,-28,-2,-2,3,705
2.3095E+11,0,1,1,-2,-14,-5,-1,2,706
2.3095E+11,-1,-5,-2,2,10,6,2,-5,707
2.3095E+11,0,0,-2,-6,-8,-9,-9,-2,708
2.3095E+11,1,-3,0,2,17,1,-1,-5,709
2.3095E+11,-2,1,-1,-3,15,-1,-3,-9,710
2.3095E+11,1,1,-2,-5,-15,-1,1,3,711
2.3095E+11,-1,-2,1,2,4,3,5,4,712
2.3095E+11,0,0,-4,1,4,1,0,7,713
2.3095E+11,-3,-3,-2,-3,-4,-5,-6,-9,714
2.3095E+11,1,-1,2,2,5,1,-2,0,715
2.3095E+11,-1,-2,0,-2,0,-1,1,0,716
2.3095E+11,-4,-2,-1,0,2,2,3,3,717
2.3095E+11,0,-4,-2,1,-1,3,1,-1,718
2.3095E+11,1,2,-3,1,-2,-2,0,0,719
2.3095E+11,-1,-1,-2,-1,-4,-3,2,1,720
2.3095E+11,1,-1,0,0,-1,-2,-5,-5,721
2.3095E+11,-3,1,1,-1,6,3,0,0,722
2.3095E+11,-1,1,1,2,4,0,-1,-1,723
2.3095E+11,-3,1,-2,-1,-25,-4,0,0,724
2.3095E+11,-2,-1,-2,-4,-1,-2,1,-4,725
2.3095E+11,2,3,-3,1,4,1,-3,-2,726
2.3095E+11,-2,-2,-3,-4,2,-2,1,0,727
2.3095E+11,0,0,-2,2,3,1,-2,2,728
2.3095E+11,-1,-2,3,2,2,-1,-1,-2,729
2.3095E+11,-2,-2,0,-2,-9,1,4,1,730
2.3095E+11,-3,-3,-4,-5,-3,-6,-7,-1,731
2.3095E+11,-1,-3,0,2,8,1,-2,-1,732
2.3095E+11,-2,0,0,0,7,-2,0,1,733
2.3095E+11,2,2,1,0,-3,2,4,5,734
2.3095E+11,-1,-4,0,3,-1,-2,2,1,735
2.3095E+11,-1,-2,1,-1,2,1,-2,1,736
2.3095E+11,-2,0,-1,2,-3,-2,-3,-3,737
2.3095E+11,1,2,-2,-3,-4,0,1,4,738
2.3095E+11,0,-3,0,-4,0,-2,-1,-3,739
2.3095E+11,0,2,0,0,-1,2,-2,-2,740
2.3095E+11,0,-2,-1,-2,-6,-3,4,1,741
2.3095E+11,-2,-3,-1,1,-1,-3,-1,-1,742
2.3095E+11,-2,-4,0,2,2,2,0,-2,743
2.3095E+11,-2,-1,2,-6,-1,-2,-4,2,744
2.3095E+11,0,-1,1,4,16,1,-1,-4,745
2.3095E+11,-2,-1,-3,-5,-15,-5,-3,-2,746
2.3095E+11,1,1,-2,-1,-2,2,0,0,747
2.3095E+11,3,0,-1,-3,5,4,8,1,748
2.3095E+11,-2,-2,-4,0,0,-6,-18,-3,749
2.3095E+11,0,-5,-4,-3,3,-4,-2,-9,750
2.3095E+11,-1,-1,-1,-1,-4,-3,1,3,751
2.3095E+11,-2,-1,-1,-2,-1,0,-1,-1,752
2.3095E+11,3,2,-1,-2,-6,5,4,2,753
2.3095E+11,-3,-2,2,1,2,-3,-2,-4,754
2.3095E+11,-4,-3,-3,-2,-5,0,3,-1,755
2.3095E+11,-3,-1,-1,3,2,0,-2,-1,756
2.30951E+11,-2,2,-2,-10,-7,-3,1,-1,757
2.30951E+11,0,-2,0,2,-4,1,0,1,758
2.30951E+11,0,0,-1,-2,2,1,-1,-2,759
2.30951E+11,-2,2,-3,0,0,-4,-2,5,760
2.30951E+11,0,-6,-1,5,13,3,2,0,761
2.30951E+11,-2,1,3,-5,-17,-4,1,0,762
2.30951E+11,-1,0,-1,1,1,-1,-1,4,763
2.30951E+11,0,0,-1,-1,-5,-4,2,-2,764
2.30951E+11,-2,2,-1,1,-2,-1,1,-4,765
2.30951E+11,0,1,-1,1,14,2,-5,-3,766
2.30951E+11,-2,0,-1,-2,-20,-5,-2,2,767
2.30951E+11,-2,-1,-2,0,5,-1,1,-2,768
2.30951E+11,0,0,-2,-5,-14,-2,4,-1,769
2.30951E+11,1,-2,-1,0,4,-1,-3,2,770
2.30951E+11,-1,0,0,-3,1,-3,1,-3,771
2.30951E+11,-2,-1,-1,-2,1,1,-2,-2,772
2.30951E+11,-4,-2,-2,-3,-4,-3,1,0,773
2.30951E+11,0,0,-1,2,1,-1,2,-3,774
2.30951E+11,1,4,-2,-1,1,3,-4,-2,775
2.30951E+11,-1,-3,-2,-2,2,-1,0,0,776
2.30951E+11,-2,-2,3,0,1,0,0,-3,777
2.30951E+11,-2,-3,0,-1,-1,2,0,0,778
2.30951E+11,-1,-1,0,1,6,3,3,-2,779
2.30951E+11,1,-1,-1,-2,-9,-1,-1,-1,780
2.30951E+11,1,-1,0,3,8,2,-2,2,781
2.30951E+11,-2,0,0,1,-10,0,-1,4,782
2.30951E+11,1,4,1,0,1,-3,4,-1,783
2.30951E+11,-5,-2,-3,-3,4,-4,-3,-7,784
2.30951E+11,1,1,0,-1,-6,-2,0,0,785
2.30951E+11,-3,-3,-1,-1,7,-1,3,1,786
2.30951E+11,-1,-3,-1,-1,-2,0,-6,-7,787
2.30951E+11,-2,-1,-1,1,-1,0,1,-1,788
2.30951E+11,-1,0,-2,-2,6,0,0,-2,789
2.30951E+11,1,1,-3,-1,-3,-3,-2,1,790
2.30951E+11,2,0,0,-4,-5,-1,-3,1,791
2.30951E+11,-2,-1,0,0,1,-3,-5,-2,792
2.30951E+11,-1,-2,-1,-2,-3,-1,-1,-4,793
2.30951E+11,-3,1,0,-2,-3,-1,0,-2,794
2.30951E+11,0,-1,0,-2,-6,-3,-7,1,795
2.30951E+11,4,-1,-1,-2,2,-2,1,0,796
2.30951E+11,-3,-1,-3,-2,-3,-1,-5,2,797
2.30951E+11,-1,0,1,0,2,2,1,1,798
2.30951E+11,-1,-2,1,2,2,2,0,-1,799
2.30951E+11,3,-1,-2,-2,-20,-5,-1,1,800
2.30951E+11,0,-2,0,1,4,0,-1,-2,801
2.30951E+11,0,-4,-1,3,8,-1,-1,-1,802
2.30951E+11,-3,-1,-2,-4,-7,4,0,1,803
2.30951E+11,2,0,1,2,5,3,1,2,804
2.30951E+11,1,-1,1,0,-6,-3,1,0,805
2.30951E+11,-1,1,0,1,3,-1,0,1,806
2.30951E+11,-1,-1,-1,1,4,-2,5,-1,807
2.30951E+11,-2,4,0,-2,-2,-2,-1,1,808
2.30951E+11,1,-2,-1,0,-1,-1,-3,-2,809
2.30951E+11,2,-3,-1,1,1,1,-3,-2,810
2.30951E+11,-4,-3,-1,0,1,-3,-2,1,811
2.30951E+11,1,-1,0,1,2,-1,2,2,812
2.30951E+11,2,0,0,-1,-9,2,1,0,813
2.30951E+11,0,2,-4,-5,-6,-4,0,0,814
2.30951E+11,-3,-4,0,-1,0,-1,1,-2,815
2.30951E+11,1,-3,-3,-4,-3,-3,-6,-4,816
2.30951E+11,-2,-1,3,2,6,-1,1,-2,817
2.30951E+11,-2,-1,-2,-2,-4,-1,-1,0,818
2.30951E+11,3,4,-2,3,0,-3,-3,3,819
2.30951E+11,-4,-2,-1,-4,3,3,1,-8,820
2.30951E+11,-2,-2,-1,-3,-6,-6,-1,0,821
2.30951E+11,-3,1,-2,-2,0,-4,-5,-8,822
2.30951E+11,0,-1,2,0,4,1,0,-3,823
2.30951E+11,-2,-1,0,1,1,5,2,3,824
2.30951E+11,-2,0,-4,-2,-1,-1,1,1,825
2.30951E+11,2,-5,0,0,0,-2,0,1,826
2.30951E+11,6,0,-2,1,13,0,-1,0,827
2.30951E+11,4,-3,0,0,0,-3,0,-4,828
2.30951E+11,-2,-1,-2,-2,1,2,-1,-7,829
2.30951E+11,-2,0,0,-1,0,-1,1,0,830
2.30951E+11,-1,0,0,-1,1,-1,1,1,831
2.30951E+11,0,-1,0,0,-6,1,-2,-1,832
2.30951E+11,-1,1,-1,-1,3,-1,-2,-2,833
2.30951E+11,-1,-2,-1,-5,-2,-2,-3,-2,834
2.30951E+11,-3,-2,-2,0,-9,-1,-2,-4,835
2.30951E+11,0,4,0,0,4,0,1,1,836
2.30951E+11,0,0,-4,-1,-5,0,-3,2,837
2.30951E+11,1,0,-1,0,0,4,-1,0,838
2.30951E+11,-3,-6,-3,-4,-2,-2,-1,1,839
2.30951E+11,-2,-1,-1,1,4,-2,-3,-1,840
2.30951E+11,0,1,0,2,-1,0,0,0,841
2.30951E+11,0,0,-1,3,-2,-1,1,0,842
2.30951E+11,-1,-2,-4,-5,6,2,-2,-3,843
2.30951E+11,-5,-2,0,1,-3,0,-1,3,844
2.30951E+11,-3,2,1,-1,-1,-4,-5,-6,845
2.30951E+11,-1,0,-2,-3,-5,-2,-2,1,846
2.30951E+11,-3,1,0,2,0,-2,1,-4,847
2.30951E+11,-1,-2,-1,-2,-5,0,-4,3,848
2.30951E+11,-1,-2,-1,1,4,-2,1,0,849
2.30951E+11,-1,2,3,1,-4,-2,-2,0,850
2.30951E+11,-3,1,-3,-3,-1,0,0,0,851
2.30951E+11,4,-2,0,3,5,0,-2,-2,852
2.30951E+11,0,-3,-1,0,-8,-1,0,2,853
2.30951E+11,-3,0,-1,-3,-4,1,0,-1,854
2.30951E+11,1,0,-1,0,-1,-2,1,-4,855
2.30951E+11,-4,1,-1,-2,-1,1,-2,1,856
2.30951E+11,-1,-2,1,1,17,1,-2,-3,857
2.30951E+11,0,-5,-1,-1,-8,-1,0,-1,858
2.30951E+11,1,-1,1,-1,-7,4,-1,2,859
2.30951E+11,1,0,-5,0,-2,1,4,10,860
2.30951E+11,1,4,-1,2,1,2,-3,-8,861
2.30951E+11,-2,-2,-1,-2,2,-1,-1,-3,862
2.30951E+11,-1,-3,3,0,-2,0,0,0,863
2.30951E+11,-2,1,0,-1,-3,-4,1,-4,864
2.30951E+11,0,-1,0,-1,-11,-14,2,3,865
2.30951E+11,-2,-1,-1,3,2,20,-4,-2,866
2.30951E+11,-4,1,-2,0,-3,-6,0,1,867
2.30951E+11,-1,0,1,0,2,-5,-5,-2,868
2.30951E+11,0,-2,-1,0,-1,18,3,1,869
2.30951E+11,-3,2,-2,-1,2,-21,-2,-2,870
2.30951E+11,-2,0,-3,-1,-3,-4,-1,6,871
2.30951E+11,-1,-1,-3,-1,4,5,6,0,872
2.30951E+11,-1,-1,0,-3,-5,-8,-4,-4,873
2.30951E+11,1,-3,0,0,-1,12,-2,-5,874
2.30951E+11,-4,-2,0,3,3,4,1,-1,875
2.30951E+11,-1,-2,1,-1,4,-4,3,0,876
2.30951E+11,0,3,-2,-1,-11,0,-5,-6,877
2.30951E+11,-4,3,-1,-1,-1,-6,0,7,878
2.30951E+11,1,-1,0,-2,0,0,-4,-3,879
2.30951E+11,-3,-2,-2,-2,-2,5,-4,-3,880
2.30951E+11,-1,0,0,-3,-5,-8,3,2,881
2.30951E+11,-1,-1,-2,3,5,-2,-4,-1,882
2.30951E+11,1,-1,-1,-1,-4,-6,1,1,883
2.30951E+11,0,0,-1,0,-3,-1,-2,0,884
2.30951E+11,1,0,0,-1,4,6,1,2,885
2.30951E+11,2,-2,-2,-1,-5,-6,0,-1,886
2.30951E+11,1,-2,-1,0,2,4,-3,-1,887
2.30951E+11,-1,-5,-1,-1,-8,-7,-6,-7,888
2.30951E+11,-1,-1,-1,-2,-2,-4,2,4,889
2.30951E+11,0,-2,0,1,1,2,-3,-8,890
2.30951E+11,2,0,-4,-5,0,-2,-1,0,891
2.30951E+11,-5,0,2,0,-1,7,0,-2,892
2.30951E+11,2,-2,-3,0,0,3,4,5,893
2.30951E+11,-2,-3,-3,0,0,-4,-2,0,894
2.30951E+11,-3,4,-1,1,2,0,-2,-1,895
2.30951E+11,1,2,-2,1,0,-8,4,3,896
2.30951E+11,-3,-1,-2,-2,-2,-1,-9,-12,897
2.30951E+11,2,-2,4,0,-3,-9,9,4,898
2.30951E+11,-2,1,-3,-2,-14,5,-3,1,899
2.30951E+11,1,-2,-1,-1,8,7,1,-3,900
2.30951E+11,-3,-4,-1,2,5,-8,-1,-7,901
2.30951E+11,0,0,-4,-5,-4,12,2,3,902
2.30951E+11,-2,-1,0,-2,-6,-9,-2,-5,903
2.30951E+11,0,-3,-1,-1,0,-5,-1,-4,904
2.30951E+11,-4,2,-3,-1,2,4,1,2,905
2.30951E+11,1,-1,-1,0,-1,2,-2,-4,906
2.30951E+11,-4,-2,1,0,4,0,-1,-2,907
2.30951E+11,1,-2,-1,-3,-2,-5,-2,-1,908
2.30951E+11,0,-2,0,1,-13,2,-3,0,909
2.30951E+11,-5,0,-2,-2,0,-5,-1,2,910
2.30951E+11,-1,-1,-3,-2,0,-3,-2,-5,911
2.30951E+11,0,3,-2,-2,0,1,0,0,912
2.30951E+11,-2,-1,-1,-1,-1,-8,-1,2,913
2.30951E+11,2,2,1,0,5,0,1,-1,914
2.30951E+11,-3,0,-1,0,-8,7,-6,-1,915
2.30951E+11,0,-2,0,1,-4,-7,1,1,916
2.30951E+11,-1,0,-3,-2,3,3,1,3,917
2.30951E+11,0,-2,-1,0,0,-3,3,1,918
2.30951E+11,-3,-2,1,-1,-3,-2,-1,-5,919
2.30951E+11,-6,1,-2,2,4,4,-6,2,920
2.30951E+11,1,2,4,-2,-1,5,5,3,921
2.30951E+11,-1,-2,-1,0,1,-2,-1,-3,922
2.30951E+11,0,0,-1,-4,-1,-4,3,0,923
2.30951E+11,2,-2,-2,0,-4,1,1,1,924
2.30951E+11,-2,1,-3,0,5,-1,-1,1,925
2.30951E+11,-1,3,-1,-2,9,1,-2,-2,926
2.30951E+11,2,1,2,0,0,-5,3,3,927
2.30951E+11,0,1,-2,-6,-5,0,-7,-6,928
2.30951E+11,1,-4,-2,-2,3,1,0,2,929
2.30951E+11,2,-1,-3,-1,-2,-5,0,-5,930
2.30951E+11,-2,0,-3,0,0,-5,-7,-1,931
2.30951E+11,0,-4,0,1,-5,-3,1,-1,932
2.30951E+11,-1,-5,-2,-1,2,-5,-4,-4,933
2.30951E+11,-4,0,0,-1,-10,1,-5,1,934
2.30951E+11,1,-2,-1,2,5,3,6,-1,935
2.30951E+11,-2,0,-2,-5,-4,0,-12,-12,936
2.30951E+11,-2,-3,-3,-1,-4,-7,-1,0,937
2.30951E+11,-2,1,-1,0,1,1,0,3,938
2.30951E+11,1,-2,-2,1,0,1,2,0,939
2.30951E+11,-3,0,1,-1,2,-3,-1,3,940
2.30951E+11,-1,0,0,0,0,4,-2,-1,941
2.30951E+11,-4,1,-2,0,-6,-14,-4,-4,942
2.30951E+11,-1,-3,0,-1,-1,1,-3,5,943
2.30951E+11,-2,-3,-2,3,3,-4,1,0,944
2.30951E+11,0,0,1,-2,-3,-6,-2,-2,945
2.30951E+11,1,-2,-1,0,-12,10,2,2,946
2.30951E+11,1,-3,-3,-3,3,-3,-3,-6,947
2.30951E+11,1,-1,0,-2,-1,-3,3,3,948
2.30951E+11,1,-1,-1,2,1,-3,-4,-3,949
2.30951E+11,2,2,2,-5,-22,10,3,5,950
2.30951E+11,-3,-2,-1,2,8,-1,-1,-2,951
2.30951E+11,1,3,-3,-1,-6,5,5,6,952
2.30951E+11,2,1,-2,0,8,0,-1,-6,953
2.30951E+11,-2,-4,-1,-1,3,-3,-3,-1,954
2.30951E+11,-2,1,0,-4,-8,-1,-2,-2,955
2.30951E+11,1,-2,-1,2,0,-2,-1,-5,956
2.30952E+11,1,-1,-1,-4,-4,-5,-4,-2,957
2.30952E+11,-1,0,-3,-1,6,-3,-1,-4,958
2.30952E+11,0,0,1,0,-3,-1,2,4,959
2.30952E+11,-2,1,-1,0,0,-1,-1,-5,960
2.30952E+11,1,0,-2,-2,-4,2,-2,7,961
2.30952E+11,1,-2,2,-1,0,0,-2,-5,962
2.30952E+11,-3,0,-2,-1,2,-1,-2,-5,963
2.30952E+11,-3,-1,-1,1,-2,2,-1,1,964
2.30952E+11,-3,-2,1,-1,-2,4,6,3,965
2.30952E+11,-4,-2,-1,-3,8,-3,-4,-8,966
2.30952E+11,2,1,-1,1,-3,1,2,4,967
2.30952E+11,0,-2,-4,-2,-5,-5,0,-5,968
2.30952E+11,-1,0,-1,-1,3,5,-8,-9,969
2.30952E+11,1,-1,-3,1,0,-2,3,4,970
2.30952E+11,-4,-2,-2,0,0,3,-1,-3,971
2.30952E+11,-4,-1,-2,-6,2,-1,-1,-1,972
2.30952E+11,-1,0,1,2,3,-2,-1,-2,973
2.30952E+11,2,-3,-4,-1,1,-8,-8,-10,974
2.30952E+11,2,0,1,-5,-9,12,2,2,975
2.30952E+11,-1,-1,-1,3,5,0,0,3,976
2.30952E+11,-3,-2,-2,-2,-3,-3,2,-3,977
2.30952E+11,-3,0,-1,-1,5,1,0,-1,978
2.30952E+11,0,-3,2,1,1,-4,1,-2,979
2.30952E+11,2,-2,-2,-5,-3,1,-4,-4,980
2.30952E+11,0,1,0,0,-9,-4,0,0,981
2.30952E+11,1,-5,-3,0,1,0,1,-2,982
2.30952E+11,-1,1,-2,0,2,-5,1,-1,983
2.30952E+11,-1,-2,2,-1,-1,2,1,2,984
2.30952E+11,-2,0,-1,2,0,1,0,-1,985
2.30952E+11,-1,-1,-1,0,0,-3,1,4,986
2.30952E+11,-3,1,1,1,1,-2,-2,-3,987
2.30952E+11,1,-1,-1,-3,-4,-5,-1,0,988
2.30952E+11,-3,-3,-3,-4,-1,8,-1,-1,989
2.30952E+11,0,1,2,2,0,-2,1,3,990
2.30952E+11,1,-1,-2,0,-2,-3,-1,0,991
2.30952E+11,0,-4,-3,-3,3,-3,-7,-3,992
2.30952E+11,-6,1,-4,-1,-4,-4,3,7,993
2.30952E+11,-5,0,0,1,3,12,1,-1,994
2.30952E+11,3,-2,0,1,3,-5,1,2,995
2.30952E+11,-1,-1,3,5,0,8,-1,-3,996
2.30952E+11,-1,-2,-2,-5,-8,-8,-3,-2,997
2.30952E+11,-3,-2,-2,-2,1,5,1,2,998
2.30952E+11,-4,-1,-2,-1,4,-2,1,-3,999
2.30952E+11,0,0,2,3,11,-2,4,-5,1000
2.30952E+11,2,-2,1,0,-2,-3,-7,-3,1001
2.30952E+11,-7,0,-1,0,-3,-1,-2,-2,1002
2.30952E+11,0,-2,-2,-7,-5,2,-7,-5,1003
2.30952E+11,2,-2,-1,0,-1,-3,0,2,1004
2.30952E+11,-2,-1,0,1,-1,2,-1,0,1005
2.30952E+11,0,1,-1,0,1,-7,-1,0,1006
2.30952E+11,1,1,0,0,-4,0,-1,1,1007
2.30952E+11,-2,-1,-2,-4,-1,3,2,2,1008
2.30952E+11,-2,-2,1,-3,-2,-2,2,-2,1009
2.30952E+11,-1,-2,2,0,-5,1,4,2,1010
2.30952E+11,0,0,-1,-1,-5,-11,-15,-8,1011
2.30952E+11,-3,0,-3,2,-5,-3,3,4,1012
2.30952E+11,1,3,-1,-2,4,9,-1,-1,1013
2.30952E+11,4,0,0,3,3,0,4,1,1014
2.30952E+11,-1,-3,-2,-2,-4,4,-3,-1,1015
2.30952E+11,-5,-2,0,-1,-3,-2,-5,-2,1016
2.30952E+11,0,1,2,2,-4,-4,1,-1,1017
2.30952E+11,-2,-1,-1,-5,-7,-3,-4,0,1018
2.30952E+11,-3,0,1,-1,0,2,5,3,1019
2.30952E+11,-2,1,-1,2,-8,-2,-4,-4,1020
2.30952E+11,-3,-4,-1,-2,7,-1,0,-2,1021
2.30952E+11,2,0,-2,1,-1,-3,-3,-1,1022
2.30952E+11,0,-3,-1,-1,1,0,3,1,1023
2.30952E+11,2,-1,-1,1,1,-6,0,-2,1024
2.30952E+11,1,1,-2,-1,3,6,-1,-2,1025
2.30952E+11,1,0,-1,-1,-3,-3,-3,-5,1026
2.30952E+11,-5,1,1,0,-2,-4,1,0,1027
2.30952E+11,2,1,0,-2,-3,-2,-3,-2,1028
2.30952E+11,-3,-1,-1,-2,2,-1,-1,-3,1029
2.30952E+11,-2,0,1,1,-7,3,0,3,1030
2.30952E+11,1,-1,-2,-1,-1,-5,-1,0,1031
2.30952E+11,1,-2,1,1,2,14,1,-4,1032
2.30952E+11,2,-1,-2,1,4,10,3,6,1033
2.30952E+11,-3,0,-1,-7,-4,-10,-7,0,1034
2.30952E+11,-2,-1,-4,-1,1,-8,1,-1,1035
2.30952E+11,-4,-1,-1,-3,-8,2,0,-2,1036
2.30952E+11,1,0,1,2,4,-2,0,-3,1037
2.30952E+11,-1,2,0,2,9,6,5,0,1038
2.30952E+11,0,-1,-3,2,3,6,2,0,1039
2.30952E+11,-2,1,-3,-3,-1,-6,-5,0,1040
2.30952E+11,-2,0,1,-1,-7,-6,-1,1,1041
2.30952E+11,0,-1,1,3,2,5,3,-4,1042
2.30952E+11,0,-1,1,-3,-4,-6,-3,2,1043
2.30952E+11,-2,-2,2,1,0,5,1,0,1044
2.30952E+11,3,-3,-3,0,-2,-17,-3,0,1045
2.30952E+11,-2,-4,1,1,5,9,-5,1,1046
2.30952E+11,2,4,1,2,-10,3,5,1,1047
2.30952E+11,0,0,0,-2,-3,-3,3,-2,1048
2.30952E+11,-3,-3,-2,-2,-3,-1,-2,0,1049
2.30952E+11,2,-1,-2,0,-5,-11,-6,-2,1050
2.30952E+11,-3,-3,0,2,9,14,-2,-4,1051
2.30952E+11,-3,-1,-3,-6,2,-3,-2,0,1052
2.30952E+11,-1,-3,0,1,-9,-5,-5,-2,1053
2.30952E+11,0,-2,-2,-5,-5,-1,4,1,1054
2.30952E+11,-2,-1,2,3,0,3,1,2,1055
2.30952E+11,-3,0,2,0,-2,-3,-2,0,1056
2.30952E+11,-1,-2,-1,1,4,-1,0,-4,1057
2.30952E+11,-2,1,-1,-1,0,0,-2,-1,1058
2.30952E+11,1,-3,-1,-4,1,-4,-4,-3,1059
2.30952E+11,0,0,0,1,0,1,3,0,1060
2.30952E+11,-3,1,1,-5,-2,6,-1,-2,1061
2.30952E+11,0,-3,-3,0,-1,0,0,-2,1062
2.30952E+11,-1,-1,-2,-4,6,-8,-2,-3,1063
2.30952E+11,1,-3,-2,2,-5,4,-3,0,1064
2.30952E+11,-3,1,-3,-5,-12,-6,-1,5,1065
2.30952E+11,-4,-6,-2,-3,0,-10,-3,-4,1066
2.30952E+11,-3,0,-2,-1,4,-1,-6,2,1067
2.30952E+11,-1,-1,0,3,7,11,1,-2,1068
2.30952E+11,-1,-1,-3,-1,0,2,-2,-3,1069
2.30952E+11,-1,2,-1,-1,-4,1,1,3,1070
2.30952E+11,3,-1,-4,-2,-8,-6,-1,1,1071
2.30952E+11,1,0,0,-1,4,-4,-2,1,1072
2.30952E+11,4,2,2,2,-4,-3,-2,-2,1073
2.30952E+11,-3,-1,-1,2,5,7,0,-5,1074
2.30952E+11,-3,-2,0,-2,-5,-1,0,-2,1075
2.30952E+11,-3,0,-4,0,9,0,1,2,1076
2.30952E+11,-3,-1,0,-3,5,1,2,3,1077
2.30952E+11,0,0,1,0,-3,-8,-3,0,1078
2.30952E+11,2,-3,-2,-1,-2,11,0,-1,1079
2.30952E+11,-2,0,-2,-3,-3,-11,-5,-1,1080
2.30952E+11,-2,0,-1,2,1,1,4,0,1081
2.30952E+11,-6,-2,-2,-3,-4,-4,-3,0,1082
2.30952E+11,-1,0,2,1,1,1,-1,1,1083
2.30952E+11,2,-1,0,-2,-3,6,3,-3,1084
2.30952E+11,1,-2,0,2,2,-4,-1,3,1085
2.30952E+11,0,0,1,-1,-1,-1,1,0,1086
2.30952E+11,1,1,0,3,8,-6,-1,-2,1087
2.30952E+11,-2,-1,-1,-6,-13,-10,-1,0,1088
2.30952E+11,1,0,0,2,9,7,-2,-4,1089
2.30952E+11,0,-1,-3,0,-4,9,3,0,1090
2.30952E+11,-1,-2,1,2,1,2,4,-1,1091
2.30952E+11,-1,-3,0,0,0,-9,-1,-2,1092
2.30952E+11,0,-3,-3,-4,-5,1,-2,-2,1093
2.30952E+11,2,1,0,2,3,-1,-1,-2,1094
2.30952E+11,-2,-1,-3,-3,-6,-4,1,1,1095
2.30952E+11,-2,-3,-3,-2,-2,5,-1,2,1096
2.30952E+11,-4,-2,0,-1,-2,-3,-1,-1,1097
2.30952E+11,0,2,2,2,1,2,-1,-2,1098
2.30952E+11,-3,-4,-3,-2,-2,4,-2,-2,1099
2.30952E+11,-4,3,1,-2,-3,-15,-1,1,1100
2.30952E+11,1,1,-3,-4,-12,10,1,2,1101
2.30952E+11,3,2,0,-2,-1,-3,-4,2,1102
2.30952E+11,-2,-2,-2,-2,0,-8,-3,-6,1103
2.30952E+11,2,-2,0,4,-5,-1,1,2,1104
2.30952E+11,-1,-4,-2,0,5,2,-2,-1,1105
2.30952E+11,-2,-1,0,-2,-2,-3,-2,-1,1106
2.30952E+11,0,1,-1,2,0,0,0,1,1107
2.30952E+11,1,-4,-1,-6,-5,1,1,2,1108
2.30952E+11,2,4,1,2,-1,-1,1,-1,1109
2.30952E+11,1,-2,-1,0,8,1,-2,-4,1110
2.30952E+11,0,2,2,0,-6,5,-3,-1,1111
2.30952E+11,-1,-1,-3,-2,4,7,2,-5,1112
2.30952E+11,-4,1,-1,-1,1,-5,2,2,1113
2.30952E+11,0,-2,1,1,0,5,-1,0,1114
2.30952E+11,1,2,-1,-3,0,-5,1,4,1115
2.30952E+11,-1,-3,-2,0,14,5,-4,-4,1116
2.30952E+11,-1,0,-2,-2,-15,5,-3,-3,1117
2.30952E+11,-3,-3,-5,0,-5,-6,1,-2,1118
2.30952E+11,0,-1,0,-4,1,1,1,-3,1119
2.30952E+11,-2,-1,-1,3,3,0,-3,-3,1120
2.30952E+11,2,-3,3,1,6,-2,-1,-2,1121
2.30952E+11,1,-1,-2,1,-3,1,2,2,1122
2.30952E+11,0,-2,1,-2,-8,-2,0,-3,1123
2.30952E+11,0,1,-1,-1,-7,-3,0,0,1124
2.30952E+11,-1,1,2,2,7,0,-1,0,1125
2.30952E+11,-1,1,-2,-2,-4,-2,-2,-3,1126
2.30952E+11,-4,-2,0,-2,-1,-2,0,-1,1127
2.30952E+11,4,-3,-2,-2,1,3,1,0,1128
2.30952E+11,-2,-4,-4,-3,2,-5,-1,-1,1129
2.30952E+11,-4,-4,-2,-2,-12,-7,0,0,1130
2.30952E+11,-4,-1,-2,-1,0,-4,-5,-3,1131
2.30952E+11,-1,-2,0,1,1,6,-1,-2,1132
2.30952E+11,-1,-4,-4,-3,-6,-5,-3,-2,1133
2.30952E+11,2,1,1,0,5,-1,0,-1,1134
2.30952E+11,-4,-3,-2,2,0,0,0,0,1135
2.30952E+11,1,-1,0,-3,-9,-8,-4,0,1136
2.30952E+11,-1,-2,-2,-1,2,11,-2,-2,1137
2.30952E+11,-1,0,1,0,1,-7,-3,-3,1138
2.30952E+11,1,-1,-5,-1,-6,-10,-5,1,1139
2.30952E+11,-1,0,-2,-2,-2,-2,-1,2,1140
2.30952E+11,-2,-3,0,1,0,-4,0,0,1141
2.30952E+11,-1,-1,-3,-5,3,2,-1,2,1142
2.30952E+11,1,2,1,2,3,4,1,-2,1143
2.30952E+11,-2,0,-1,1,0,-4,-1,-2,1144
2.30952E+11,0,-2,0,-1,-1,-4,0,0,1145
2.30952E+11,0,1,-1,-2,-7,2,2,-1,1146
2.30952E+11,0,1,0,-2,1,1,-2,1,1147
2.30952E+11,-2,0,-1,-1,-3,-1,-1,-1,1148
2.30952E+11,-2,2,-1,1,-5,-12,1,-5,1149
2.30952E+11,0,-5,0,0,7,13,-2,-2,1150
2.30952E+11,-2,-1,-4,-4,-2,-1,0,-2,1151
2.30952E+11,-4,-1,-1,1,9,4,1,-2,1152
2.30952E+11,1,0,-3,0,-9,-18,-11,2,1153
2.30952E+11,-1,2,0,2,3,9,1,-1,1154
2.30953E+11,2,0,0,-1,-3,-1,1,0,1155
2.30953E+11,-1,2,0,0,-3,-2,0,2,1156
2.30953E+11,-2,-1,-1,-1,4,1,1,-2,1157
2.30953E+11,-1,-2,-1,1,-1,-7,-1,1,1158
2.30953E+11,-2,2,-2,-3,-1,3,-2,-1,1159
2.30953E+11,1,-3,-1,-2,3,0,1,-2,1160
2.30953E+11,-1,1,-2,-2,-14,5,3,0,1161
2.30953E+11,-3,-1,-2,-5,-13,-12,-6,4,1162
2.30953E+11,-3,-2,-3,0,4,4,3,-2,1163
2.30953E+11,-2,-2,-2,3,-3,3,-1,-1,1164
2.30953E+11,-1,-1,-1,0,4,6,3,-1,1165
2.30953E+11,-2,-2,0,-1,0,-4,-2,1,1166
2.30953E+11,0,1,3,3,2,-4,-2,-1,1167
2.30953E+11,3,0,-2,-5,-7,-5,-4,0,1168
2.30953E+11,-2,1,1,0,0,4,0,2,1169
2.30953E+11,1,2,2,1,5,-1,-1,1,1170
2.30953E+11,2,-2,-1,-2,0,-2,-1,-1,1171
2.30953E+11,-5,-1,-3,-2,2,3,0,-2,1172
2.30953E+11,-1,0,-2,-4,1,-5,-2,-2,1173
2.30953E+11,-2,-2,-3,0,0,-6,3,-2,1174
2.30953E+11,-4,-3,-2,-2,0,9,-7,-4,1175
2.30953E+11,-3,0,-3,-6,-10,-7,-5,2,1176
2.30953E+11,0,0,-1,1,5,1,0,-2,1177
2.30953E+11,1,2,-2,-3,-5,0,2,1,1178
2.30953E+11,-2,-1,1,1,0,-3,-1,-1,1179
2.30953E+11,-2,1,-1,5,6,2,-1,-4,1180
2.30953E+11,-2,-2,-1,-4,-5,1,-2,1,1181
2.30953E+11,-3,-1,-3,-1,-2,-4,-4,-3,1182
2.30953E+11,-2,-2,0,1,-1,0,7,2,1183
2.30953E+11,1,2,-1,-1,-4,-1,0,0,1184
2.30953E+11,0,1,0,2,3,0,0,-3,1185
2.30953E+11,-1,-5,0,0,2,4,2,-2,1186
2.30953E+11,-1,1,-3,-2,-7,-4,0,2,1187
2.30953E+11,-2,0,2,-2,-16,-4,0,-1,1188
2.30953E+11,0,-5,-1,-1,4,1,-3,1,1189
2.30953E+11,0,-1,1,-2,-1,3,-1,-1,1190
2.30953E+11,0,-2,-1,0,-1,0,-3,-3,1191
2.30953E+11,-3,-2,-1,-2,4,0,-2,-1,1192
2.30953E+11,1,-2,-1,0,1,1,3,-2,1193
2.30953E+11,-2,-2,0,-1,2,-3,-2,0,1194
2.30953E+11,1,-2,-3,-1,-7,-1,-1,0,1195
2.30953E+11,1,0,0,-3,-1,-4,1,-1,1196
2.30953E+11,2,-2,0,5,10,5,-5,1,1197
2.30953E+11,-1,-2,-4,-5,-10,-2,2,2,1198
2.30953E+11,1,-4,0,2,11,-3,-2,-1,1199
2.30953E+11,-1,0,-1,0,-16,1,-5,-2,1200
2.30953E+11,-1,-1,1,-2,-8,-4,14,-2,1201
2.30953E+11,0,0,-1,2,7,4,-12,-7,1202
2.30953E+11,0,-4,-1,-1,0,-3,0,-1,1203
2.30953E+11,-2,-3,0,-1,4,-2,0,-2,1204
2.30953E+11,-2,-2,-4,-2,-6,-2,-4,-1,1205
2.30953E+11,1,0,0,1,-4,-2,2,-1,1206
2.30953E+11,-4,1,1,-2,-1,-1,1,1,1207
2.30953E+11,1,-1,2,0,7,-1,1,-4,1208
2.30953E+11,0,2,-3,-2,-4,-4,-6,-1,1209
2.30953E+11,-2,-4,-1,-1,2,1,3,1,1210
2.30953E+11,-1,-3,-6,4,6,1,-2,-4,1211
2.30953E+11,2,-3,-1,-3,-7,-1,3,-1,1212
2.30953E+11,0,-1,-2,0,8,-1,-2,0,1213
2.30953E+11,0,5,3,-1,-12,-1,0,2,1214
2.30953E+11,-1,0,-1,-2,1,1,0,0,1215
2.30953E+11,-2,-5,-3,-1,-1,-4,-3,1,1216
2.30953E+11,-2,-1,0,-3,-1,1,1,-2,1217
2.30953E+11,-2,1,-3,1,7,0,0,-3,1218
2.30953E+11,-6,2,-1,-3,-3,-3,-2,-1,1219
2.30953E+11,-1,1,-1,0,2,1,1,1,1220
2.30953E+11,-3,1,0,-2,-1,2,5,2,1221
2.30953E+11,-4,-2,-3,-3,1,-2,0,3,1222
2.30953E+11,4,1,0,-3,-8,0,-6,2,1223
2.30953E+11,1,-1,0,1,2,-1,2,0,1224
2.30953E+11,-3,0,-1,-2,-3,-5,-11,0,1225
2.30953E+11,-2,-4,-3,1,1,1,7,0,1226
2.30953E+11,0,-1,-1,-2,7,1,3,2,1227
2.30953E+11,1,0,-2,0,-12,-3,-4,-1,1228
2.30953E+11,5,-1,-1,-1,2,-2,0,-2,1229
2.30953E+11,1,-2,-1,1,-4,1,-3,-3,1230
2.30953E+11,-1,-1,0,2,6,0,0,-1,1231
2.30953E+11,-4,-1,-2,-2,-1,-2,-1,1,1232
2.30953E+11,-1,2,2,0,-2,1,-1,-1,1233
2.30953E+11,-1,0,-2,1,1,-2,-2,1,1234
2.30953E+11,2,3,1,0,-7,0,-2,-3,1235
2.30953E+11,-2,2,-1,-1,3,2,2,-1,1236
2.30953E+11,-3,-2,-1,1,-6,-1,0,-2,1237
2.30953E+11,-2,-2,-1,-2,4,-4,-3,-3,1238
2.30953E+11,-4,-1,-1,-2,-8,-2,0,3,1239
2.30953E+11,1,-2,-2,0,16,-2,-1,-1,1240
2.30953E+11,2,1,-1,-1,-9,-1,1,0,1241
2.30953E+11,0,-3,1,-2,0,-1,0,-2,1242
2.30953E+11,-3,-4,-3,-3,0,-1,-1,0,1243
2.30953E+11,0,-3,-1,1,7,2,0,-3,1244
2.30953E+11,2,-2,3,6,5,-5,1,-3,1245
2.30953E+11,-1,1,-1,-7,-15,2,-3,4,1246
2.30953E+11,-2,-3,0,2,2,-4,6,-1,1247
2.30953E+11,-2,0,0,2,-3,2,-2,-1,1248
2.30953E+11,-2,-1,-3,-4,-2,0,-1,0,1249
2.30953E+11,-2,0,-2,0,-1,-3,-1,0,1250
2.30953E+11,0,-1,-2,-2,-3,2,-1,0,1251
2.30953E+11,0,-1,-1,-1,-7,-5,-3,0,1252
2.30953E+11,-4,-5,0,0,5,-1,-3,-3,1253
2.30953E+11,1,1,-1,-1,4,0,-1,0,1254
2.30953E+11,-1,2,-1,0,-13,0,3,-1,1255
2.30953E+11,-2,-2,-1,-2,1,-1,0,-1,1256
2.30953E+11,-2,-1,-3,-1,-3,0,-2,2,1257
2.30953E+11,1,1,-2,1,3,-2,4,-1,1258
2.30953E+11,-3,-1,-1,0,0,-4,-3,-1,1259
2.30953E+11,-3,-1,0,-2,-6,1,1,0,1260
2.30953E+11,2,-1,2,0,2,1,-3,0,1261
2.30953E+11,-4,2,0,-2,-7,-1,-2,0,1262
2.30953E+11,1,-1,-1,0,-3,-2,-3,0,1263
2.30953E+11,2,-1,-1,-4,2,2,0,1,1264
2.30953E+11,-5,-2,-1,0,7,0,1,-2,1265
2.30953E+11,-2,-2,1,2,1,0,2,-2,1266
2.30953E+11,3,1,-1,0,-1,0,-1,1,1267
2.30953E+11,-3,-2,-1,-1,-11,-4,-3,-1,1268
2.30953E+11,-3,-5,-4,-2,-2,1,0,0,1269
2.30953E+11,0,-1,-1,-1,-7,-4,-3,-1,1270
2.30953E+11,2,-3,0,-1,4,5,1,0,1271
2.30953E+11,-2,1,2,3,6,-1,7,-4,1272
2.30953E+11,-1,-1,-3,-3,-6,-1,-3,-1,1273
2.30953E+11,0,1,-2,1,1,0,-5,1,1274
2.30953E+11,-6,-2,-2,-1,0,-2,1,0,1275
2.30953E+11,1,-1,0,1,-1,1,2,0,1276
2.30953E+11,2,1,-1,-1,-3,0,-1,-1,1277
2.30953E+11,-1,-1,-1,0,1,1,4,-2,1278
2.30953E+11,2,0,-3,-2,1,-6,-8,-1,1279
2.30953E+11,-2,-3,-2,-1,3,2,-1,0,1280
2.30953E+11,-1,0,-2,0,-5,-3,0,2,1281
2.30953E+11,0,-1,0,-1,6,1,0,-3,1282
2.30953E+11,0,-1,-3,-1,-14,0,4,-4,1283
2.30953E+11,-1,-1,2,-3,-3,-1,-4,-1,1284
2.30953E+11,0,-1,-1,0,4,-3,5,7,1285
2.30953E+11,-1,-2,-1,-4,-5,-1,-1,-1,1286
2.30953E+11,-2,0,-2,0,4,0,-3,-2,1287
2.30953E+11,4,0,-3,0,-4,-5,-1,-1,1288
2.30953E+11,-1,0,0,0,-7,1,0,-2,1289
2.30953E+11,0,1,-2,1,3,1,1,0,1290
2.30953E+11,-4,-2,2,-3,-3,-4,-12,-2,1291
2.30953E+11,0,0,-2,-2,1,2,2,3,1292
2.30953E+11,1,2,0,-2,3,-1,-4,-4,1293
2.30953E+11,4,-1,1,2,2,-1,2,-2,1294
2.30953E+11,-3,-1,1,0,4,-2,-2,2,1295
2.30953E+11,0,-2,-3,-1,5,-3,-1,-2,1296
2.30953E+11,-1,2,-3,-1,-1,-2,-4,3,1297
2.30953E+11,-3,-3,-3,-2,-3,-1,-2,-1,1298
2.30953E+11,3,-1,1,1,2,2,4,-1,1299
2.30953E+11,-2,-2,-1,-1,-5,-2,-1,-3,1300
2.30953E+11,-2,0,0,-4,-4,0,0,-1,1301
2.30953E+11,-2,-3,1,2,2,-2,-2,-1,1302
2.30953E+11,-2,-3,0,-2,8,2,0,-3,1303
2.30953E+11,-1,-1,-1,0,-11,-7,-5,0,1304
2.30953E+11,-4,-1,-1,0,0,3,4,-2,1305
2.30953E+11,-1,1,-3,-1,-6,-8,-6,-1,1306
2.30953E+11,-4,3,-1,1,2,2,0,-3,1307
2.30953E+11,-2,-2,1,1,0,1,1,-1,1308
2.30953E+11,-3,1,0,-1,6,-1,-3,-2,1309
2.30953E+11,2,-2,-2,-2,-16,-2,5,1,1310
2.30953E+11,2,-3,-1,-1,-4,0,-1,0,1311
2.30953E+11,-1,1,1,-3,1,2,-1,-1,1312
2.30953E+11,3,2,-1,0,-2,-3,0,-3,1313
2.30953E+11,-1,1,2,-2,0,4,3,1,1314
2.30953E+11,3,-6,-5,-2,-4,-1,-1,1,1315
2.30953E+11,-8,-9,-5,-1,2,-1,-3,-3,1316
2.30953E+11,1,1,1,-3,-3,0,-2,0,1317
2.30953E+11,-4,0,1,-1,4,0,-4,-1,1318
2.30953E+11,0,3,1,-4,-4,0,2,-1,1319
2.30953E+11,-1,0,-2,0,3,1,-5,-1,1320
2.30953E+11,-3,-1,-2,-1,-1,-2,-1,-1,1321
2.30953E+11,-5,-2,-1,0,-16,-2,-5,-2,1322
2.30953E+11,-4,1,-2,-2,0,-1,-1,1,1323
2.30953E+11,-2,1,-3,1,0,0,0,-2,1324
2.30953E+11,1,-5,-1,-3,-5,-3,0,0,1325
2.30953E+11,3,2,-1,-2,4,1,0,2,1326
2.30953E+11,-2,-2,-1,0,-1,-1,-1,-3,1327
2.30953E+11,1,0,3,-1,-7,0,1,-2,1328
2.30953E+11,1,-1,-3,1,5,0,2,0,1329
2.30953E+11,-1,-2,-2,-1,-5,2,2,1,1330
2.30953E+11,-2,0,1,0,1,-4,-3,0,1331
2.30953E+11,5,-2,-2,0,2,-1,-1,0,1332
2.30953E+11,-2,-1,1,-2,-3,-1,-3,-4,1333
2.30953E+11,-3,0,-1,1,4,0,-3,-2,1334
2.30953E+11,0,0,0,0,-2,-1,0,0,1335
2.30953E+11,-1,-1,-2,-2,1,0,-2,4,1336
2.30953E+11,2,-1,-2,3,11,3,-4,-1,1337
2.30953E+11,-2,-1,-1,-8,-7,-6,-4,0,1338
2.30953E+11,-2,-2,0,2,2,0,0,-4,1339
2.30953E+11,0,0,3,1,-1,-4,-4,-2,1340
2.30953E+11,-5,-4,-3,-3,-2,0,-1,-4,1341
2.30953E+11,-1,1,-2,3,6,-1,-2,0,1342
2.30953E+11,-2,1,-3,-2,-1,0,-1,-2,1343
2.30953E+11,1,-3,-2,-1,1,-2,-1,-2,1344
2.30953E+11,1,-3,-2,-2,-11,-3,2,1,1345
2.30953E+11,2,-2,-1,-2,3,-2,2,-3,1346
2.30953E+11,0,0,0,-2,0,-1,-2,-4,1347
2.30953E+11,0,4,-1,-1,0,0,-3,1,1348
2.30953E+11,0,-2,-1,-1,-2,0,4,2,1349
2.30953E+11,-2,-2,-2,0,2,1,-2,-1,1350
2.30953E+11,2,-2,-1,-2,-2,-2,3,-3,1351
2.30953E+11,0,4,-1,-2,-2,-2,0,-4,1352
2.30954E+11,-3,0,2,1,9,-1,-1,0,1353
2.30954E+11,-4,-2,-1,-4,-3,-3,0,1,1354
2.30954E+11,0,-4,-1,-4,-1,1,3,5,1355
2.30954E+11,0,0,-2,-2,-4,1,-1,-3,1356
2.30954E+11,-2,-1,-4,-2,-2,-1,-6,-2,1357
2.30954E+11,-1,-2,-1,4,5,2,2,-3,1358
2.30954E+11,-1,2,-1,2,-2,-1,-3,-1,1359
2.30954E+11,-3,-2,1,-2,1,1,0,0,1360
2.30954E+11,2,-2,-1,2,-1,0,1,-2,1361
2.30954E+11,3,-1,-3,-3,1,-1,-1,-4,1362
2.30954E+11,-2,2,0,-1,-6,-3,-3,1,1363
2.30954E+11,-2,-2,-1,1,1,-1,0,1,1364
2.30954E+11,-2,0,-2,-2,-3,-3,-1,-1,1365
2.30954E+11,-1,0,1,0,-2,2,2,1,1366
2.30954E+11,0,-2,-4,-2,-2,-1,-1,-1,1367
2.30954E+11,2,0,1,-1,2,-4,2,0,1368
2.30954E+11,-2,0,-1,-1,-5,0,-2,-2,1369
2.30954E+11,-1,-3,-1,0,0,1,2,1,1370
2.30954E+11,-3,0,1,1,0,0,-2,-4,1371
2.30954E+11,3,0,-4,-1,0,-3,-1,2,1372
2.30954E+11,-4,-1,-4,-2,-3,0,-2,-1,1373
2.30954E+11,2,0,0,0,0,1,-2,-4,1374
2.30954E+11,-4,-4,-1,-1,2,0,-2,0,1375
2.30954E+11,1,-2,-1,-4,-5,2,1,-1,1376
2.30954E+11,1,-2,2,0,-2,0,0,-2,1377
2.30954E+11,-2,-1,1,0,3,0,-2,-3,1378
2.30954E+11,-1,1,1,1,-2,-5,-2,1,1379
2.30954E+11,-4,-4,-3,-2,-2,1,5,0,1380
2.30954E+11,0,-1,-2,-1,3,-3,-3,-1,1381
2.30954E+11,0,-1,-2,1,1,2,-3,-6,1382
2.30954E+11,3,0,-2,-5,-6,-1,-2,0,1383
2.30954E+11,3,2,1,1,0,-1,-2,-2,1384
2.30954E+11,2,4,-1,-1,-2,-3,-3,0,1385
2.30954E+11,0,-2,4,0,1,1,0,-1,1386
2.30954E+11,1,1,-2,-1,-2,0,0,-2,1387
2.30954E+11,-4,-1,-2,-3,-1,-1,-3,0,1388
2.30954E+11,1,-2,2,0,-3,-1,0,-1,1389
2.30954E+11,-4,1,1,1,0,-2,-1,2,1390
2.30954E+11,-5,1,2,1,2,0,3,2,1391
2.30954E+11,-2,-12,-6,-5,-4,-3,-3,-3,1392
2.30954E+11,2,6,-2,-3,-1,-1,2,0,1393
2.30954E+11,-1,-3,-1,-3,-3,-3,2,4,1394
2.30954E+11,0,2,3,1,0,-3,2,-2,1395
2.30954E+11,-3,5,1,2,-1,3,6,2,1396
2.30954E+11,-1,-7,-1,0,-8,-1,-3,-1,1397
2.30954E+11,1,2,-2,-2,3,-1,0,-3,1398
2.30954E+11,0,-1,-6,-5,-1,1,-8,-1,1399
2.30954E+11,0,0,2,0,-2,-3,-6,0,1400
2.30954E+11,-3,-2,-3,-1,2,2,9,-1,1401
2.30954E+11,2,1,-2,-1,-1,-1,-1,2,1402
2.30954E+11,-3,-2,-1,1,-3,0,-1,0,1403
2.30954E+11,-2,0,-3,-1,1,-2,-5,-1,1404
2.30954E+11,1,2,0,-1,-1,4,1,0,1405
2.30954E+11,-5,-1,0,-2,-3,-10,-7,-2,1406
2.30954E+11,0,-5,-1,-3,-1,1,2,-3,1407
2.30954E+11,0,0,1,1,1,1,-2,-3,1408
2.30954E+11,-3,-2,2,1,0,-1,-5,-3,1409
2.30954E+11,0,0,-4,-1,-3,1,1,1,1410
2.30954E+11,2,-3,2,-1,7,-1,-1,1,1411
2.30954E+11,0,-1,0,-1,-3,-3,1,-2,1412
2.30954E+11,-2,0,0,-3,1,1,-3,-2,1413
2.30954E+11,1,-4,-2,-2,-2,-1,-7,-4,1414
2.30954E+11,-2,3,-3,0,-1,-1,0,0,1415
2.30954E+11,3,1,0,4,9,0,-1,-5,1416
2.30954E+11,0,1,-2,-9,-9,-3,26,2,1417
2.30954E+11,-3,4,1,-1,-11,-4,-41,-6,1418
2.30954E+11,15,8,-8,-4,1,-5,2,-2,1419
2.30954E+11,-12,-15,-2,-1,-2,-3,-4,-4,1420
2.30954E+11,-4,-5,-1,2,2,0,6,-5,1421
2.30954E+11,-5,0,1,-1,3,-2,9,0,1422
2.30954E+11,-4,0,1,2,-4,1,-1,0,1423
2.30954E+11,-1,-7,-3,-1,-2,1,-7,-4,1424
2.30954E+11,-6,2,-1,0,2,-2,-11,0,1425
2.30954E+11,1,-4,0,0,-1,5,8,0,1426
2.30954E+11,-6,-2,-1,-2,-3,1,-5,2,1427
2.30954E+11,4,3,3,0,1,0,6,4,1428
2.30954E+11,-1,-2,1,1,-4,-1,-8,0,1429
2.30954E+11,2,1,-3,0,13,-3,5,0,1430
2.30954E+11,-6,-5,1,2,-3,-1,6,0,1431
2.30954E+11,3,6,0,-2,-4,0,-3,2,1432
2.30954E+11,6,0,1,2,0,-2,-6,-1,1433
2.30954E+11,5,1,-3,-7,-3,-1,3,-1,1434
2.30954E+11,1,-5,3,-1,2,-3,-7,-5,1435
2.30954E+11,-7,-12,-7,-4,-18,-3,4,-3,1436
2.30954E+11,6,4,2,0,-2,-6,-30,0,1437
2.30954E+11,-2,-1,-1,1,2,2,6,-1,1438
2.30954E+11,-3,-1,4,0,0,0,0,-1,1439
2.30954E+11,1,8,1,1,5,0,0,-1,1440
2.30954E+11,0,-3,-2,3,-1,0,7,0,1441
2.30954E+11,0,0,-2,-2,-8,2,3,0,1442
2.30954E+11,3,-1,0,-2,0,-1,-5,-3,1443
2.30954E+11,5,4,3,1,3,2,1,3,1444
2.30954E+11,-1,0,-2,-3,0,-1,2,-1,1445
2.30954E+11,-3,-3,0,-1,11,0,-3,-2,1446
2.30954E+11,-4,-2,-4,-2,-6,-1,4,0,1447
2.30954E+11,1,1,3,-1,2,0,0,0,1448
2.30954E+11,-3,-1,0,0,-4,0,2,-4,1449
2.30954E+11,-1,-4,-1,-1,1,2,-2,1,1450
2.30954E+11,-1,-4,-1,1,-1,0,1,2,1451
2.30954E+11,-1,2,0,0,-1,-1,-3,0,1452
2.30954E+11,1,0,-2,0,0,-2,0,0,1453
2.30954E+11,-4,-3,1,4,-5,-1,3,1,1454
2.30954E+11,1,-7,-7,-4,-2,-4,-10,-5,1455
2.30954E+11,2,7,1,0,-4,0,-1,0,1456
2.30954E+11,-1,-4,1,-3,1,1,1,-1,1457
2.30954E+11,-3,-2,-3,-1,-4,0,1,1,1458
2.30954E+11,-4,2,-1,2,1,0,0,1,1459
2.30954E+11,-5,0,-2,-3,-3,-4,-1,-1,1460
2.30954E+11,-1,-2,-3,-2,0,1,-1,0,1461
2.30954E+11,-2,1,0,0,-3,-3,1,0,1462
2.30954E+11,3,2,-2,0,0,0,-2,-1,1463
2.30954E+11,0,0,1,1,0,-1,-2,-3,1464
2.30954E+11,-1,-2,0,-1,-2,-1,0,1,1465
2.30954E+11,-3,-5,0,-2,-2,-3,1,-5,1466
2.30954E+11,-2,0,0,0,-1,1,2,2,1467
2.30954E+11,-2,0,-3,-2,0,0,-2,0,1468
2.30954E+11,0,-1,-2,-2,0,-1,0,-3,1469
2.30954E+11,1,-2,0,-3,-2,-2,1,0,1470
2.30954E+11,-2,2,1,0,-4,2,2,-1,1471
2.30954E+11,1,-3,-1,1,1,-3,0,-3,1472
2.30954E+11,-2,-2,-2,0,-1,0,-2,3,1473
2.30954E+11,-1,0,-1,-1,-2,-1,-3,-1,1474
2.30954E+11,-2,-1,-1,-2,1,0,2,1,1475
2.30954E+11,0,-1,-2,0,0,0,-1,2,1476
2.30954E+11,3,0,-2,0,1,0,0,1,1477
2.30954E+11,0,-1,-2,2,-3,2,-1,-3,1478
2.30954E+11,2,-1,-1,-1,-3,-3,-1,-1,1479
2.30954E+11,-4,-3,-1,-1,-3,-2,-3,-4,1480
2.30954E+11,-2,0,0,0,-1,-4,-1,-1,1481
2.30954E+11,1,3,-2,-1,-1,0,0,1,1482
2.30954E+11,1,3,1,-2,-1,-4,-1,-1,1483
2.30954E+11,2,0,2,-3,1,1,0,-1,1484
2.30954E+11,-3,0,1,-3,-2,-1,-2,-1,1485
2.30954E+11,0,-6,-2,1,-2,0,-2,2,1486
2.30954E+11,0,0,-1,-1,1,-1,-1,-2,1487
2.30954E+11,-2,0,-1,0,-1,-1,1,0,1488
2.30954E+11,-2,-1,-1,0,0,0,-2,-1,1489
2.30954E+11,-2,-1,-1,-1,1,-5,0,-1,1490
2.30954E+11,-1,-1,-1,-1,-1,-1,-2,2,1491
2.30954E+11,1,-1,1,-2,-1,-1,-4,-1,1492
2.30954E+11,-2,-1,-1,0,0,-1,0,1,1493
2.30954E+11,-2,-1,-1,-1,-2,-1,0,-1,1494
2.30954E+11,0,-4,0,-1,-4,-3,-3,-3,1495
2.30954E+11,-2,1,-3,0,-1,0,-2,-3,1496
2.30954E+11,-1,-1,-2,1,1,-1,-1,-3,1497
2.30954E+11,2,1,0,-1,0,-1,0,0,1498
2.30954E+11,-3,-1,-4,-1,0,-1,-1,-3,1499
2.30954E+11,-1,-3,-4,-3,1,-1,-2,1,1500
2.30954E+11,4,-2,2,0,-1,-1,-1,-2,1501
2.30954E+11,-3,0,1,-3,-1,1,-1,0,1502
2.30954E+11,1,-2,-1,-3,1,0,-2,1,1503
2.30954E+11,1,-3,-2,-1,-1,-1,0,0,1504
2.30954E+11,2,-2,-1,-3,-2,0,0,0,1505
2.30954E+11,-1,-3,1,-2,-1,-1,1,-1,1506
2.30954E+11,-2,-2,-2,-3,-1,2,0,-2,1507
2.30954E+11,0,0,0,-1,-1,0,-1,0,1508
2.30954E+11,-1,-1,-1,0,-2,-1,-2,-3,1509
2.30954E+11,1,3,-1,-2,-1,-3,-2,-1,1510
2.30954E+11,-3,-1,-1,-1,-2,-2,-1,-1,1511
2.30954E+11,0,-2,0,1,-2,-2,-1,-1,1512
2.30954E+11,-6,-2,-3,1,0,0,-1,-2,1513
2.30954E+11,2,-1,-2,0,-3,0,-4,-3,1514
2.30954E+11,1,-2,-1,0,-1,-1,0,-1,1515
2.30954E+11,-6,0,-2,-1,-1,-2,0,0,1516
2.30954E+11,1,-1,2,-1,-1,1,-1,1,1517
2.30954E+11,-1,-3,-1,-3,-2,2,2,0,1518
2.30954E+11,1,2,-1,0,-2,1,0,-2,1519
2.30954E+11,0,-2,-1,0,-2,-1,1,1,1520
2.30954E+11,1,-2,-1,-1,-1,0,-1,-1,1521
2.30954E+11,-3,0,0,0,1,-1,-3,-2,1522
2.30954E+11,1,-1,0,-2,-2,-3,-1,1,1523
2.30954E+11,-1,-1,-4,-2,-1,-3,0,0,1524
2.30954E+11,0,-1,-2,-2,-3,-1,-3,-1,1525
2.30954E+11,0,-1,-1,-1,-1,0,1,1,1526
2.30954E+11,-2,-1,-1,-1,0,-1,-4,-4,1527
2.30954E+11,2,3,0,-1,2,-1,-4,-1,1528
2.30954E+11,-6,2,4,0,1,-2,1,-2,1529
2.30954E+11,1,-3,-4,0,0,-1,0,1,1530
2.30954E+11,-2,0,0,-1,0,1,2,-2,1531
2.30954E+11,-1,2,1,-2,-2,-3,0,-1,1532
2.30954E+11,1,-1,-1,-2,-2,0,-2,0,1533
2.30954E+11,-4,1,-1,-3,-2,-1,0,-1,1534
2.30954E+11,0,-2,0,1,0,-2,-1,1,1535
2.30954E+11,-2,-6,-1,-1,-2,1,-1,0,1536
2.30954E+11,3,2,1,-2,-1,-1,0,1,1537
2.30954E+11,-4,1,-2,0,2,-1,-1,1,1538
2.30954E+11,0,-1,-3,-1,1,-2,-1,-2,1539
2.30954E+11,-5,1,0,-1,1,1,-1,-3,1540
2.30954E+11,-1,-3,-2,-1,-1,-2,0,-3,1541
2.30954E+11,-1,0,-1,-2,-4,0,0,0,1542
2.30954E+11,2,-1,1,-1,0,1,3,4,1543
2.30954E+11,-5,-6,-5,-2,-3,-2,-3,-4,1544
2.30954E+11,0,1,-3,2,0,0,0,1,1545
2.30954E+11,0,-2,-2,-1,-3,0,1,1,1546
2.30954E+11,-2,-2,-2,0,-1,1,-2,-1,1547
2.30954E+11,1,0,0,-2,0,0,0,1,1548
2.30954E+11,-2,-2,-2,-2,0,-2,-2,-2,1549
2.30954E+11,-1,0,0,-2,-1,0,-1,-2,1550
2.30954E+11,-3,0,0,-2,0,0,0,0,1551
2.30954E+11,3,0,1,0,-1,-2,-1,3,1552
2.30954E+11,-3,-1,-3,1,-3,1,1,-3,1553
2.30954E+11,1,3,0,0,-1,-1,-1,0,1554
2.30955E+11,-2,-3,-2,0,-2,1,0,0,1555
2.30955E+11,3,2,1,-1,1,0,-2,-6,1556
2.30955E+11,1,-2,0,-2,-2,-3,2,2,1557
2.30955E+11,-2,-2,-2,1,0,-1,-3,-2,1558
2.30955E+11,0,2,1,-4,1,2,-1,1,1559
2.30955E+11,3,1,-3,1,0,-2,-2,5,1560
2.30955E+11,-6,-3,-2,-2,-1,0,-4,-4,1561
2.30955E+11,2,-1,0,0,1,-3,0,-1,1562
2.30955E+11,-1,1,-3,1,-1,-1,-1,-1,1563
2.30955E+11,1,0,-1,1,-1,0,-2,1,1564
2.30955E+11,1,-2,-2,-1,-1,-1,-1,-2,1565
2.30955E+11,2,-1,-1,-2,-1,-2,0,-2,1566
2.30955E+11,-3,-1,0,-2,-1,0,-1,-2,1567
2.30955E+11,-2,-1,0,-2,-1,-1,0,-3,1568
2.30955E+11,0,2,-1,1,0,-1,-1,1,1569
2.30955E+11,-3,-2,-3,1,0,-1,-4,-5,1570
2.30955E+11,1,-2,0,-1,0,-1,0,1,1571
2.30955E+11,0,-1,-2,0,-1,1,0,-2,1572
2.30955E+11,-3,-1,-2,-1,-3,-1,-1,1,1573
2.30955E+11,2,-2,1,-2,0,-2,-1,2,1574
2.30955E+11,-4,-1,-1,0,0,-2,0,-3,1575
2.30955E+11,-2,0,0,0,-2,-2,-2,0,1576
2.30955E+11,0,1,0,0,-2,-1,-3,-1,1577
2.30955E+11,2,-4,2,1,0,0,0,-2,1578
2.30955E+11,3,-2,-3,0,-1,-1,-1,1,1579
2.30955E+11,-2,-4,0,-3,-1,-3,0,1,1580
2.30955E+11,-1,1,-2,-1,-2,-2,2,-2,1581
2.30955E+11,-1,-1,-2,-1,-1,0,-1,0,1582
2.30955E+11,0,-1,0,0,-1,-1,-2,-2,1583
2.30955E+11,-3,-1,-1,1,-1,-1,-1,-2,1584
2.30955E+11,2,-1,1,0,0,-2,0,2,1585
2.30955E+11,-1,0,-2,-1,-1,-2,-1,1,1586
2.30955E+11,-3,1,-1,-2,-2,0,-2,-5,1587
2.30955E+11,-1,-1,0,-1,-1,-1,0,0,1588
2.30955E+11,0,-3,-2,-3,-1,1,0,-1,1589
2.30955E+11,0,-1,-2,-3,-3,1,0,-1,1590
2.30955E+11,-1,2,-2,0,0,-1,-1,1,1591
2.30955E+11,-4,-3,0,-3,-3,-1,-1,0,1592
2.30955E+11,0,0,0,1,1,-1,0,-5,1593
2.30955E+11,-2,-2,-2,0,0,-1,0,-2,1594
2.30955E+11,0,1,-2,-2,-2,-1,1,-1,1595
2.30955E+11,1,-1,0,0,-3,0,0,-1,1596
2.30955E+11,-1,-1,-3,-2,-3,-2,-2,-1,1597
2.30955E+11,1,-1,3,-2,0,-2,-2,0,1598
2.30955E+11,-3,-1,-1,-1,-2,0,-1,2,1599
2.30955E+11,0,-1,-1,0,0,2,0,-4,1600
2.30955E+11,-1,-2,-1,0,1,1,-1,-2,1601
2.30955E+11,-2,1,0,-2,-2,-2,1,0,1602
2.30955E+11,1,-1,-1,1,-1,-2,-1,1,1603
2.30955E+11,0,2,-1,-3,0,1,0,1,1604
2.30955E+11,-2,-1,-2,-1,1,-2,1,3,1605
2.30955E+11,-2,-2,-1,-1,-3,1,-1,-1,1606
2.30955E+11,0,0,-1,1,0,-3,-1,-1,1607
2.30955E+11,-2,-2,0,2,-1,0,0,2,1608
2.30955E+11,0,-1,2,-1,0,-1,-1,0,1609
2.30955E+11,-3,-2,-4,-2,-2,-1,-3,-1,1610
2.30955E+11,-2,-5,-1,-4,-3,-3,-2,-4,1611
2.30955E+11,1,2,-2,1,0,0,-3,-2,1612
2.30955E+11,0,1,0,-1,0,-2,-2,0,1613
2.30955E+11,0,0,0,0,1,-1,1,1,1614
2.30955E+11,0,0,0,-2,-2,0,-1,-1,1615
2.30955E+11,-1,0,-2,0,0,-4,1,-2,1616
2.30955E+11,0,3,0,-1,-1,1,-2,-1,1617
2.30955E+11,-1,1,0,0,-3,-2,0,1,1618
2.30955E+11,-1,-2,-2,-1,-1,-1,0,0,1619
2.30955E+11,-3,-2,-2,-2,-1,0,0,1,1620
2.30955E+11,-1,0,-1,0,-1,-3,-1,-1,1621
2.30955E+11,2,0,1,2,1,0,0,-3,1622
2.30955E+11,1,0,-1,-2,0,-1,-1,0,1623
2.30955E+11,-1,-1,-1,1,-1,-3,-1,-3,1624
2.30955E+11,-3,-3,-2,-2,-1,2,2,4,1625
2.30955E+11,1,-3,-2,1,1,-1,1,-2,1626
2.30955E+11,-5,-3,-2,-5,-2,1,-3,0,1627
2.30955E+11,-1,-2,-2,0,-3,-2,0,1,1628
2.30955E+11,-2,2,-1,-1,-1,-3,-1,1,1629
2.30955E+11,-3,-4,-1,-1,1,0,-1,-3,1630
2.30955E+11,0,0,-4,1,0,1,-2,0,1631
2.30955E+11,0,-1,-1,-1,-1,0,4,0,1632
2.30955E+11,-3,-4,0,1,-2,2,-2,-2,1633
2.30955E+11,2,0,-1,0,0,-2,-1,0,1634
2.30955E+11,-5,-1,-1,0,0,-1,1,0,1635
2.30955E+11,0,1,-2,-2,1,-2,-4,-3,1636
2.30955E+11,2,2,0,-1,-2,-1,1,-3,1637
2.30955E+11,-5,0,1,1,-3,-1,-1,1,1638
2.30955E+11,-2,-3,-2,-2,-1,0,-1,-1,1639
2.30955E+11,2,-1,0,-1,-2,-2,-1,0,1640
2.30955E+11,0,-3,-3,-3,-1,3,0,-3,1641
2.30955E+11,-2,-2,-3,0,-1,-1,-2,-2,1642
2.30955E+11,2,-2,0,-1,-2,-1,0,0,1643
2.30955E+11,-5,0,-1,-1,1,-1,0,-2,1644
2.30955E+11,0,-1,-4,-1,-1,-3,-3,-2,1645
2.30955E+11,-3,-3,0,-3,-3,-1,0,-1,1646
2.30955E+11,1,1,2,0,-4,-1,-3,-3,1647
2.30955E+11,2,1,0,0,-2,1,1,1,1648
2.30955E+11,-1,1,-1,2,0,0,-3,-2,1649
2.30955E+11,0,0,0,-1,-1,-2,1,0,1650
2.30955E+11,-2,0,-1,0,-1,-3,-1,0,1651
2.30955E+11,-3,1,-1,-2,0,-1,-2,-1,1652
2.30955E+11,2,-2,-1,1,-1,-2,-2,-2,1653
2.30955E+11,2,2,-2,-2,-1,0,-1,0,1654
2.30955E+11,-1,0,3,0,-2,-1,-2,0,1655
2.30955E+11,0,-1,-2,-1,-3,-2,-2,1,1656
2.30955E+11,-1,-1,1,-1,1,-1,-1,0,1657
2.30955E+11,-2,3,-2,-1,1,-2,0,1,1658
2.30955E+11,-2,-1,0,-2,1,-1,3,1,1659
2.30955E+11,0,-1,-1,-2,-1,1,0,1,1660
2.30955E+11,0,-3,-2,-1,0,-1,-1,-3,1661
2.30955E+11,-3,-3,-1,-2,-2,-1,-2,0,1662
2.30955E+11,-2,-4,-1,-1,-1,-1,1,-1,1663
2.30955E+11,0,-3,0,2,2,-2,1,-1,1664
2.30955E+11,1,-1,-1,-3,-2,0,-1,-2,1665
2.30955E+11,-1,-1,-3,-2,2,0,-1,0,1666
2.30955E+11,-1,1,-2,1,0,1,-1,-1,1667
2.30955E+11,-2,-3,0,-1,0,0,-4,-3,1668
2.30955E+11,-1,2,0,-2,-1,-1,0,1,1669
2.30955E+11,1,-1,-1,0,-1,0,-2,0,1670
2.30955E+11,-1,1,1,-1,-3,-1,-2,-3,1671
2.30955E+11,-2,0,-3,0,1,-1,-1,-1,1672
2.30955E+11,-3,-4,1,-2,-2,-2,0,1,1673
2.30955E+11,0,1,-2,-1,2,0,-1,-2,1674
2.30955E+11,1,-1,0,-1,0,-1,1,0,1675
2.30955E+11,-2,-2,-1,-1,-3,0,0,-1,1676
2.30955E+11,-1,-3,-2,-1,-4,-2,2,5,1677
2.30955E+11,-1,0,-1,-3,-3,0,-1,0,1678
2.30955E+11,-3,-2,-2,-2,0,-2,-4,-2,1679
2.30955E+11,1,1,-1,0,-2,-1,-1,-3,1680
2.30955E+11,0,1,-3,-1,1,1,0,-2,1681
2.30955E+11,-2,-3,1,-2,-2,-2,-1,-2,1682
2.30955E+11,0,2,0,1,-1,-1,-1,1,1683
2.30955E+11,-1,0,-3,0,-1,-2,0,-1,1684
2.30955E+11,-2,-3,-3,-1,-4,-1,-3,-2,1685
2.30955E+11,-2,-5,-1,2,0,-1,0,-1,1686
2.30955E+11,0,-1,-4,-2,-2,1,-1,0,1687
2.30955E+11,-3,-3,-1,-3,-2,0,2,-1,1688
2.30955E+11,0,0,-1,-1,1,0,0,-2,1689
2.30955E+11,0,1,-1,-1,-2,-1,-1,-4,1690
2.30955E+11,2,2,-1,1,-3,0,-4,1,1691
2.30955E+11,1,-3,-2,0,1,0,-1,3,1692
2.30955E+11,2,0,0,-1,0,0,-4,2,1693
2.30955E+11,-2,-5,0,0,-4,1,2,-2,1694
2.30955E+11,-3,-2,0,0,1,1,-1,0,1695
2.30955E+11,1,0,-1,0,1,0,-2,-3,1696
2.30955E+11,-1,-1,0,-1,-1,-1,-1,0,1697
2.30955E+11,0,-1,1,-2,-1,-3,-2,-2,1698
2.30955E+11,2,0,-2,0,0,-3,1,-1,1699
2.30955E+11,-2,-2,-1,-2,-2,-2,-1,-5,1700
2.30955E+11,-2,-5,-4,-2,-1,0,2,1,1701
2.30955E+11,-2,-1,-4,0,-3,-1,-2,2,1702
2.30955E+11,-1,-1,-1,-1,0,2,0,-4,1703
2.30955E+11,-2,2,0,0,-2,0,-2,1,1704
2.30955E+11,-2,1,-1,1,-1,-2,0,0,1705
2.30955E+11,-1,0,1,0,-1,0,-1,-2,1706
2.30955E+11,-3,-1,-2,1,-3,-2,-1,-4,1707
2.30955E+11,-4,-1,1,-1,0,0,-2,-1,1708
2.30955E+11,1,-2,0,-4,-1,-1,1,-2,1709
2.30955E+11,-1,0,1,0,1,-1,-3,4,1710
2.30955E+11,2,-2,-4,-2,-2,0,-2,-1,1711
2.30955E+11,-2,0,0,-3,0,-1,-1,1,1712
2.30955E+11,0,-1,-1,1,-2,-1,0,-2,1713
2.30955E+11,-3,-1,1,1,-1,-2,-1,-2,1714
2.30955E+11,0,-1,-3,-2,-2,-3,1,-2,1715
2.30955E+11,1,-1,-1,-2,-1,-2,-3,1,1716
2.30955E+11,-3,0,-1,1,-2,-1,-2,-2,1717
2.30955E+11,-1,0,-3,-2,0,-1,-3,-2,1718
2.30955E+11,-1,-3,1,-1,-1,-3,1,-1,1719
2.30955E+11,-1,-2,-3,-1,-2,-1,1,-1,1720
2.30955E+11,-2,0,2,2,-2,0,0,0,1721
2.30955E+11,-3,-1,0,0,-2,0,1,0,1722
2.30955E+11,0,0,-1,0,1,-1,-1,2,1723
2.30955E+11,0,-2,-2,0,-1,1,-2,0,1724
2.30955E+11,2,-1,1,1,1,-1,-1,-5,1725
2.30955E+11,0,-4,-4,1,-4,1,-1,-1,1726
2.30955E+11,-1,0,1,0,-1,-1,-2,-2,1727
2.30955E+11,0,-2,-1,-1,1,-2,0,-1,1728
2.30955E+11,-2,1,-2,0,0,0,0,-1,1729
2.30955E+11,1,2,-2,-1,-2,-2,1,-1,1730
2.30955E+11,-1,-3,1,-3,0,1,-2,-3,1731
2.30955E+11,0,-1,1,0,-1,-2,-1,0,1732
2.30955E+11,-4,-5,-1,-2,0,0,-2,-1,1733
2.30955E+11,-2,3,1,0,0,0,0,-1,1734
2.30955E+11,0,-2,-1,-2,-1,-3,-2,1,1735
2.30955E+11,-1,0,0,-1,-5,-2,1,-3,1736
2.30955E+11,0,-1,-1,-2,-1,0,-2,0,1737
2.30955E+11,2,0,-2,-1,0,1,2,-1,1738
2.30955E+11,-2,1,-1,1,1,1,0,0,1739
2.30955E+11,-3,-3,-1,-2,0,0,-2,-3,1740
2.30955E+11,-3,0,-1,1,-4,-1,0,-1,1741
2.30955E+11,-1,-2,1,0,0,0,-1,-1,1742
2.30955E+11,-3,-1,-2,-1,-4,1,-2,-1,1743
2.30955E+11,3,0,-2,0,-2,-2,-2,0,1744
2.30955E+11,-1,1,-1,-3,0,-2,-2,2,1745
2.30955E+11,-2,-1,-2,-1,0,-1,-2,0,1746
2.30955E+11,0,-2,-1,-2,-1,-2,1,2,1747
2.30955E+11,0,-2,0,2,0,1,2,1,1748
2.30955E+11,1,0,1,0,0,0,2,-2,1749
2.30955E+11,0,-2,-3,-1,1,-1,-1,1,1750
2.30955E+11,-1,-1,1,-1,-2,-3,-3,0,1751
2.30955E+11,1,0,0,-1,0,-2,-1,-2,1752
2.30955E+11,-2,0,1,-1,0,-1,2,2,1753
2.30955E+11,3,-2,2,-4,1,-1,-2,1,1754
2.30956E+11,-1,-1,-3,-1,0,0,-1,-1,1755
2.30956E+11,0,-2,-3,-1,-1,-4,-3,-1,1756
2.30956E+11,-2,-2,-4,-1,-1,0,-3,-2,1757
2.30956E+11,-2,3,-1,1,-1,0,3,-2,1758
2.30956E+11,0,2,0,2,1,1,-1,-2,1759
2.30956E+11,1,0,1,-1,-2,-1,2,1,1760
2.30956E+11,1,-1,-1,0,1,-1,-2,0,1761
2.30956E+11,-1,0,-1,-2,-3,-1,0,0,1762
2.30956E+11,-2,-1,-3,-1,-2,-2,1,-1,1763
2.30956E+11,-2,1,-2,-3,0,2,0,1,1764
2.30956E+11,-3,0,-1,-3,-3,-1,-1,-1,1765
2.30956E+11,0,-3,0,0,1,1,-2,-1,1766
2.30956E+11,0,2,-1,-1,1,1,0,-1,1767
2.30956E+11,3,-4,-2,0,-1,-1,3,-2,1768
2.30956E+11,-3,-2,-2,0,-1,0,0,-1,1769
2.30956E+11,1,-4,-1,-2,-4,-2,-4,2,1770
2.30956E+11,-2,0,0,-1,-1,-1,0,-1,1771
2.30956E+11,-2,-1,1,-2,-2,0,-1,-3,1772
2.30956E+11,-1,-2,-1,-1,2,0,0,-2,1773
2.30956E+11,-1,-4,-2,0,0,-1,1,-1,1774
2.30956E+11,2,-1,2,-1,-3,-2,0,1,1775
2.30956E+11,-8,1,-2,-1,1,-1,-2,1,1776
2.30956E+11,0,0,-3,-3,-2,0,0,-3,1777
2.30956E+11,0,-2,0,-1,-2,-1,-1,0,1778
2.30956E+11,0,0,1,-1,-1,1,0,1,1779
2.30956E+11,-2,-2,-2,-2,-1,-1,1,-1,1780
2.30956E+11,0,-5,-1,-1,-1,-2,-1,-2,1781
2.30956E+11,-3,1,-2,0,2,0,-1,1,1782
2.30956E+11,-2,-1,-1,-1,-1,-1,0,-2,1783
2.30956E+11,-1,1,-3,1,-3,-2,-3,-1,1784
2.30956E+11,-2,0,-1,-1,-1,1,-1,1,1785
2.30956E+11,-3,-1,-2,-2,0,0,0,-2,1786
2.30956E+11,-1,-1,0,2,1,-2,-1,0,1787
2.30956E+11,0,-2,1,-1,0,0,-3,-1,1788
2.30956E+11,-1,0,1,-1,-2,0,2,1,1789
2.30956E+11,-1,0,0,-2,0,0,-2,-2,1790
2.30956E+11,-2,-3,-1,1,0,0,0,-2,1791
2.30956E+11,-1,0,-2,1,-3,-1,-2,-2,1792
2.30956E+11,0,1,-2,-1,1,-1,-3,0,1793
2.30956E+11,-4,-2,-2,-1,-1,-2,0,-3,1794
2.30956E+11,0,0,-2,1,-1,0,-1,-1,1795
2.30956E+11,1,-2,0,0,1,0,-4,-1,1796
2.30956E+11,4,-1,-2,-1,-2,-2,0,0,1797
2.30956E+11,-3,-1,0,-3,-1,-1,0,-4,1798
2.30956E+11,-2,-3,0,0,0,0,-2,2,1799
2.30956E+11,-3,-1,-2,-1,-1,-1,-1,0,1800
2.30956E+11,-1,1,-1,0,1,1,-3,-1,1801
2.30956E+11,1,1,0,-1,-2,0,1,-1,1802
2.30956E+11,0,-1,-1,-1,-2,0,1,-2,1803
2.30956E+11,-2,-1,0,-1,0,-2,-1,-1,1804
2.30956E+11,1,-3,1,0,-1,0,1,2,1805
2.30956E+11,-2,1,-1,-1,1,0,-1,-1,1806
2.30956E+11,0,-2,-1,-3,-1,0,-2,2,1807
2.30956E+11,0,-1,0,0,-2,1,1,-2,1808
2.30956E+11,1,-2,-1,-1,1,-4,-2,-1,1809
2.30956E+11,-2,-1,1,1,-1,2,-3,2,1810
2.30956E+11,0,-3,-2,-1,-3,-3,-3,-3,1811
2.30956E+11,0,0,0,-1,2,-3,0,-1,1812
2.30956E+11,-1,-1,-1,-4,-3,0,2,0,1813
2.30956E+11,-2,-3,-4,2,-1,0,-1,-3,1814
2.30956E+11,-1,-2,0,-1,-1,-2,-2,-1,1815
2.30956E+11,0,0,-4,-2,0,-1,-1,-1,1816
2.30956E+11,0,-2,0,0,1,0,0,0,1817
2.30956E+11,0,-4,-2,-1,-1,-3,1,2,1818
2.30956E+11,-1,0,-2,-3,1,1,1,-2,1819
2.30956E+11,0,-1,2,0,0,1,-2,0,1820
2.30956E+11,1,0,-2,-1,-3,0,-1,2,1821
2.30956E+11,0,2,1,0,-2,-1,0,-1,1822
2.30956E+11,-1,-2,-1,0,-1,-2,-1,1,1823
2.30956E+11,3,-2,0,0,-2,-2,0,-1,1824
2.30956E+11,-1,-1,-2,1,-1,-2,-3,-3,1825
2.30956E+11,1,0,-2,-2,0,-1,0,-1,1826
2.30956E+11,-2,-2,0,-1,-1,0,0,-1,1827
2.30956E+11,-1,2,0,-1,-3,-1,-1,-1,1828
2.30956E+11,-2,-1,-1,1,-3,0,-2,-4,1829
2.30956E+11,-1,-3,-2,-1,-1,-2,-1,0,1830
2.30956E+11,1,0,-2,-2,1,1,1,0,1831
2.30956E+11,-1,-3,-1,-2,-2,-1,-1,-1,1832
2.30956E+11,-3,1,0,-1,-2,1,-1,-1,1833
2.30956E+11,2,-1,0,-1,0,-1,-1,0,1834
2.30956E+11,0,1,-1,-1,-1,-1,0,-3,1835
2.30956E+11,-2,-2,-2,0,0,0,0,2,1836
2.30956E+11,-1,0,-1,-2,0,0,0,-1,1837
2.30956E+11,1,0,0,0,0,0,-3,-1,1838
2.30956E+11,-3,-2,-2,-2,-2,-2,-3,2,1839
2.30956E+11,1,0,-1,1,-1,0,-2,0,1840
2.30956E+11,1,1,0,1,-1,-3,-1,-2,1841
2.30956E+11,-4,-1,-5,-1,-1,-2,0,-1,1842
2.30956E+11,-1,0,-1,0,0,1,-1,-3,1843
2.30956E+11,-1,-2,-1,-2,-2,-4,0,-1,1844
2.30956E+11,-3,-1,0,-1,0,-3,-2,-4,1845
2.30956E+11,2,-3,-1,-1,-2,-1,-2,-2,1846
2.30956E+11,0,-1,1,-2,-2,-2,-1,0,1847
2.30956E+11,1,-2,-2,0,-2,1,0,0,1848
2.30956E+11,2,2,0,2,2,-1,-1,-1,1849
2.30956E+11,-1,0,-2,-2,-1,-1,0,-1,1850
2.30956E+11,-3,0,1,1,0,-1,-4,0,1851
2.30956E+11,1,0,-2,-2,-1,0,1,-1,1852
2.30956E+11,0,-3,0,-2,-3,-1,-1,-1,1853
2.30956E+11,-2,-1,1,-1,-1,0,-1,-1,1854
2.30956E+11,-3,2,0,-2,-1,2,1,-2,1855
2.30956E+11,0,0,0,-1,-1,0,-2,-1,1856
2.30956E+11,0,1,0,1,0,0,-2,1,1857
2.30956E+11,-3,0,-2,-2,-1,0,-1,1,1858
2.30956E+11,0,-1,-3,0,0,0,0,1,1859
2.30956E+11,-3,1,0,-1,2,-1,-1,-2,1860
2.30956E+11,-6,-1,-3,-1,1,0,0,-2,1861
2.30956E+11,-1,1,1,1,-2,0,-2,1,1862
2.30956E+11,-5,-1,-2,-1,-1,-2,0,-4,1863
2.30956E+11,1,0,1,1,0,0,0,2,1864
2.30956E+11,1,-3,-2,-2,-3,0,0,-1,1865
2.30956E+11,-2,-2,-2,-1,0,-2,-3,-2,1866
2.30956E+11,0,-1,-2,2,-3,-3,0,0,1867
2.30956E+11,-1,-1,-2,-1,0,-1,2,-1,1868
2.30956E+11,0,0,-1,-1,-2,1,2,1,1869
2.30956E+11,0,-3,0,-2,-1,0,1,2,1870
2.30956E+11,0,0,0,-2,0,-2,-1,-1,1871
2.30956E+11,-1,-2,-2,0,-1,-1,0,-2,1872
2.30956E+11,-3,-3,0,1,1,-2,-1,0,1873
2.30956E+11,-2,4,0,-1,-2,-1,1,-1,1874
2.30956E+11,2,-3,0,0,0,-2,-2,0,1875
2.30956E+11,-1,-2,0,-1,1,-1,-1,-1,1876
2.30956E+11,-1,-3,-2,-3,-2,0,0,4,1877
2.30956E+11,0,0,-1,0,-2,1,1,-3,1878
2.30956E+11,1,0,-2,-1,-1,-1,0,-6,1879
2.30956E+11,-4,2,-1,-1,-1,-1,1,-3,1880
2.30956E+11,-1,0,-1,-3,0,0,-1,-1,1881
2.30956E+11,-1,-4,-1,1,0,-1,-4,1,1882
2.30956E+11,-3,-1,-1,-3,-2,2,-1,1,1883
2.30956E+11,2,0,-3,-1,-2,-2,-1,1,1884
2.30956E+11,-1,-2,-1,-1,-2,0,-2,0,1885
2.30956E+11,1,-3,-3,0,0,-1,1,-1,1886
2.30956E+11,0,-2,-3,-1,-1,-3,-1,1,1887
2.30956E+11,-3,-5,2,-1,-2,0,1,-1,1888
2.30956E+11,-1,1,0,-3,-1,-2,0,-3,1889
2.30956E+11,-1,0,0,0,1,0,-2,-2,1890
2.30956E+11,0,0,-1,-1,-5,-1,1,2,1891
2.30956E+11,-2,-3,1,1,2,-2,-3,-2,1892
2.30956E+11,1,1,-1,2,1,0,-1,-2,1893
2.30956E+11,1,0,0,-1,-1,1,-3,0,1894
2.30956E+11,-1,-1,-2,0,1,-1,0,-2,1895
2.30956E+11,-1,0,-1,-4,-3,-1,-3,0,1896
2.30956E+11,1,-1,1,-1,-3,-2,0,1,1897
2.30956E+11,-1,-3,-4,-1,-2,-3,2,1,1898
2.30956E+11,1,2,1,0,-1,2,-3,-1,1899
2.30956E+11,0,-3,-1,0,0,-2,1,-2,1900
2.30956E+11,0,-1,0,-1,1,-2,0,-1,1901
2.30956E+11,-2,1,-1,-2,-1,-3,-1,0,1902
2.30956E+11,-4,-3,-1,1,-1,1,1,-1,1903
2.30956E+11,2,0,-2,-1,-3,0,-2,-1,1904
2.30956E+11,-2,0,-3,-1,-1,0,-1,0,1905
2.30956E+11,0,0,1,2,4,1,1,-1,1906
2.30956E+11,1,0,0,-4,-4,-2,-2,2,1907
2.30956E+11,-2,0,-3,-2,-4,0,-4,2,1908
2.30956E+11,0,-3,1,-2,-1,0,0,0,1909
2.30956E+11,2,3,-1,-1,-1,-3,-1,-4,1910
2.30956E+11,-1,-4,-2,1,-2,0,0,1,1911
2.30956E+11,-4,0,0,1,1,-1,1,-3,1912
2.30956E+11,4,-1,-2,1,0,0,-1,2,1913
2.30956E+11,-1,-3,-2,-2,-1,-1,1,-1,1914
2.30956E+11,0,1,2,-2,4,-1,1,-1,1915
2.30956E+11,-3,-1,-3,-2,-2,-1,-1,2,1916
2.30956E+11,-3,-3,-1,2,-3,1,-2,-2,1917
2.30956E+11,0,-1,-2,-2,-2,-1,-2,0,1918
2.30956E+11,-2,0,-1,-2,-2,-1,0,1,1919
2.30956E+11,1,1,-1,-2,0,-1,1,-1,1920
2.30956E+11,-3,1,-2,-2,-3,-2,-4,-1,1921
2.30956E+11,-1,-4,-1,-2,1,2,-2,-2,1922
2.30956E+11,0,1,-1,-2,-3,-4,-1,-3,1923
2.30956E+11,1,1,0,-2,-2,0,3,0,1924
2.30956E+11,-1,-1,-2,-2,1,-2,-3,-3,1925
2.30956E+11,-6,-1,-3,0,1,0,0,0,1926
2.30956E+11,1,-1,0,-1,-2,2,-2,-3,1927
2.30956E+11,1,1,-1,3,3,1,-1,0,1928
2.30956E+11,0,-3,-4,-3,-3,-2,-1,-3,1929
2.30956E+11,-2,-2,2,0,-1,0,-1,0,1930
2.30956E+11,0,1,-2,-1,-2,-2,-1,-1,1931
2.30956E+11,-1,0,0,0,-3,-1,-1,1,1932
2.30956E+11,-3,3,0,1,1,0,-2,1,1933
2.30956E+11,0,1,0,-1,-2,-1,-1,-1,1934
2.30956E+11,-2,1,-1,0,-1,-1,-2,0,1935
2.30956E+11,-2,-1,-3,-1,9,0,-2,0,1936
2.30956E+11,-3,0,-1,-1,-10,-2,2,-1,1937
2.30956E+11,0,-3,-2,0,2,-2,0,2,1938
2.30956E+11,1,-4,-3,-1,0,1,1,-3,1939
2.30956E+11,-1,0,0,0,-2,-2,-2,-1,1940
2.30956E+11,-2,-4,0,0,2,0,5,1,1941
2.30956E+11,0,1,-1,-2,-4,0,-5,-1,1942
2.30956E+11,-5,-1,-1,-2,0,-2,-2,1,1943
2.30956E+11,-3,-3,-1,0,-5,0,-1,0,1944
2.30956E+11,-3,0,1,4,0,0,2,-3,1945
2.30956E+11,-1,-2,0,-5,-7,-3,0,0,1946
2.30956E+11,-1,-2,-1,0,3,-2,-1,0,1947
2.30956E+11,1,-2,0,-1,-4,-1,-3,-1,1948
2.30956E+11,-1,-1,-3,1,3,2,-2,1,1949
2.30956E+11,-1,1,-1,-1,0,0,-1,0,1950
2.30956E+11,2,-1,-2,-4,-2,-2,0,-2,1951
2.30956E+11,-4,-1,-3,-3,-6,-3,-1,1,1952
2.30957E+11,1,1,0,-1,5,-1,-3,0,1953
2.30957E+11,-2,1,0,2,6,1,2,-4,1954
2.30957E+11,3,0,-1,-7,-15,-2,0,3,1955
2.30957E+11,-2,-1,0,-1,3,0,-2,-3,1956
2.30957E+11,-2,-4,-1,-2,-2,-4,-3,-4,1957
2.30957E+11,0,-1,-1,2,5,0,0,0,1958
2.30957E+11,1,-3,-1,3,3,0,-1,0,1959
2.30957E+11,0,-1,-2,-3,-2,-1,0,-1,1960
2.30957E+11,-3,-2,0,-2,0,-2,-2,2,1961
2.30957E+11,-3,1,-2,-1,-6,-3,-3,-7,1962
2.30957E+11,-4,1,0,1,1,-1,-1,-2,1963
2.30957E+11,0,-3,-4,-4,-7,1,0,1,1964
2.30957E+11,3,1,0,-1,-1,2,-2,2,1965
2.30957E+11,-1,0,-3,-1,-1,0,1,4,1966
2.30957E+11,-1,0,0,0,1,-1,1,-1,1967
2.30957E+11,1,-1,0,-1,5,1,-2,-3,1968
2.30957E+11,-3,1,-1,0,-2,-2,3,0,1969
2.30957E+11,3,2,-1,-2,-4,-3,1,1,1970
2.30957E+11,-2,-4,-1,0,1,0,-3,-1,1971
2.30957E+11,-2,0,-1,0,0,0,3,0,1972
2.30957E+11,2,1,-3,-3,0,0,0,-4,1973
2.30957E+11,-1,-2,1,-2,-3,0,-2,1,1974
2.30957E+11,-3,-2,-1,-1,1,1,2,1,1975
2.30957E+11,-1,-2,1,3,8,0,1,-2,1976
2.30957E+11,-4,-1,-1,-6,-30,-9,-7,-7,1977
2.30957E+11,0,0,-2,-1,-7,0,0,1,1978
2.30957E+11,1,-1,0,4,16,5,0,4,1979
2.30957E+11,1,-1,-3,-3,-5,3,0,1,1980
2.30957E+11,0,0,-1,-4,5,-1,-1,8,1981
2.30957E+11,-1,-3,-2,-2,-2,-6,-5,-15,1982
2.30957E+11,-2,-2,-2,-2,-8,-7,-2,-1,1983
2.30957E+11,-2,2,-1,4,2,1,0,0,1984
2.30957E+11,-1,-1,0,2,6,4,2,0,1985
2.30957E+11,1,1,1,0,-4,2,2,6,1986
2.30957E+11,-1,1,0,1,2,1,1,-2,1987
2.30957E+11,-2,0,0,-2,-2,-2,-3,-3,1988
2.30957E+11,1,2,-2,0,1,-1,-2,2,1989
2.30957E+11,0,-2,-1,-3,1,-2,-4,-1,1990
2.30957E+11,1,-1,-1,-1,-1,-1,1,-3,1991
2.30957E+11,-2,-3,0,-5,-6,-3,-3,2,1992
2.30957E+11,-1,-1,0,2,11,0,2,-2,1993
2.30957E+11,-3,-1,-1,-1,-10,-1,2,-1,1994
2.30957E+11,-1,1,-2,-3,-2,0,0,-2,1995
2.30957E+11,2,2,-3,-4,-5,-2,-4,0,1996
2.30957E+11,2,0,-1,0,4,1,1,0,1997
2.30957E+11,-2,-2,0,2,5,3,0,0,1998
2.30957E+11,-2,-3,-1,0,-4,-3,0,-1,1999
2.30957E+11,-1,0,0,1,-3,1,1,0,2000
2.30957E+11,0,-1,-2,1,6,0,-1,-1,2001
2.30957E+11,-1,0,-1,-3,-7,-5,0,-3,2002
2.30957E+11,-1,1,-1,-1,-3,-2,-4,2,2003
2.30957E+11,0,1,-2,1,2,-1,-2,-3,2004
2.30957E+11,1,-2,-2,-1,-3,3,3,1,2005
2.30957E+11,0,0,-1,-1,4,-2,0,1,2006
2.30957E+11,0,-1,0,0,6,4,2,-4,2007
2.30957E+11,-2,-3,-2,-2,0,-6,-3,-3,2008
2.30957E+11,0,-1,-1,-1,-4,1,-1,-1,2009
2.30957E+11,0,2,-2,-1,-3,2,1,7,2010
2.30957E+11,0,2,1,2,-3,-4,-3,-7,2011
2.30957E+11,-4,-3,-1,-3,6,2,1,-4,2012
2.30957E+11,-2,-3,-1,-2,-5,-1,0,-1,2013
2.30957E+11,0,1,0,0,8,0,-2,0,2014
2.30957E+11,2,-1,-2,0,-3,-1,-2,0,2015
2.30957E+11,-1,-2,-2,1,-2,1,2,-1,2016
2.30957E+11,-1,-1,-1,-1,-3,-1,-2,0,2017
2.30957E+11,0,-1,-2,0,-2,0,1,-4,2018
2.30957E+11,-2,-4,0,-2,-3,-2,-2,2,2019
2.30957E+11,1,0,0,1,0,-2,0,-7,2020
2.30957E+11,-1,0,0,-3,-3,-5,3,-1,2021
2.30957E+11,-5,-3,-1,-2,2,1,-3,2,2022
2.30957E+11,-1,0,-1,-1,-7,0,-2,-2,2023
2.30957E+11,0,-1,-1,-1,-2,-1,0,-1,2024
2.30957E+11,-1,0,0,1,1,0,-2,1,2025
2.30957E+11,-2,-3,0,1,2,0,1,-2,2026
2.30957E+11,1,0,0,2,10,0,-3,0,2027
2.30957E+11,0,2,-2,-5,-10,-3,-1,2,2028
2.30957E+11,2,-5,1,0,6,-1,-2,-2,2029
2.30957E+11,-1,1,0,2,-1,0,-1,-2,2030
2.30957E+11,-2,0,0,0,3,-8,-3,-3,2031
2.30957E+11,1,-2,1,0,-3,0,0,0,2032
2.30957E+11,-1,1,-3,-1,-1,-1,-3,0,2033
2.30957E+11,1,0,-2,-1,3,0,-5,-3,2034
2.30957E+11,-1,-4,-1,0,-4,0,-2,0,2035
2.30957E+11,1,1,0,-1,2,-2,0,-1,2036
2.30957E+11,-1,-2,1,-4,-6,-2,1,3,2037
2.30957E+11,0,-3,-2,1,-1,1,1,2,2038
2.30957E+11,-2,0,-5,-3,-4,-2,-1,-7,2039
2.30957E+11,-4,-2,1,-1,0,1,0,5,2040
2.30957E+11,-2,-1,-3,-2,-1,-1,-6,-4,2041
2.30957E+11,-1,-5,-1,-2,-5,-4,-1,-2,2042
2.30957E+11,-1,1,1,-1,0,1,1,-2,2043
2.30957E+11,-2,-3,-1,0,-2,-1,0,4,2044
2.30957E+11,-1,-3,-3,-4,-1,-2,-6,-5,2045
2.30957E+11,-3,0,-1,-2,-2,-3,-4,-11,2046
2.30957E+11,1,-1,-1,1,8,0,3,0,2047
2.30957E+11,1,0,-1,4,-9,1,0,-4,2048
2.30957E+11,-1,0,-2,-2,-7,-8,-1,9,2049
2.30957E+11,2,-5,-3,-2,6,1,1,2,2050
2.30957E+11,-2,-1,-1,-4,-17,-5,-1,0,2051
2.30957E+11,-1,2,-3,-1,7,0,-4,0,2052
2.30957E+11,-2,1,-1,3,0,1,-1,-4,2053
2.30957E+11,1,1,1,-1,-2,-2,-2,3,2054
2.30957E+11,-1,1,-2,-1,0,-1,1,2,2055
2.30957E+11,0,-3,1,1,-2,1,-1,1,2056
2.30957E+11,0,1,0,0,-2,0,3,-4,2057
2.30957E+11,-1,1,0,-1,-3,-1,-2,2,2058
2.30957E+11,0,-2,-1,-1,-1,4,-4,5,2059
2.30957E+11,-2,0,-3,-3,-2,-4,-1,-1,2060
2.30957E+11,1,-1,-2,-2,0,2,1,-4,2061
2.30957E+11,-1,3,-1,-2,-2,0,2,3,2062
2.30957E+11,0,-1,1,-3,0,-1,-1,-6,2063
2.30957E+11,-2,1,-2,1,0,-1,-4,2,2064
2.30957E+11,-4,-2,0,0,4,-1,1,-3,2065
2.30957E+11,-1,-2,-5,0,6,-1,-1,0,2066
2.30957E+11,-4,2,-2,-1,-5,-2,0,-2,2067
2.30957E+11,1,-2,-1,-3,3,-1,-1,1,2068
2.30957E+11,0,-2,-2,0,-5,1,2,3,2069
2.30957E+11,-2,3,1,-2,-2,-2,1,-2,2070
2.30957E+11,-2,0,1,3,2,-2,0,-1,2071
2.30957E+11,-1,-2,-1,-5,-5,2,-1,-4,2072
2.30957E+11,-2,0,1,2,4,0,-3,1,2073
2.30957E+11,0,-1,-4,0,-6,-2,0,-5,2074
2.30957E+11,-1,-2,-2,0,-1,2,2,2,2075
2.30957E+11,-2,0,1,1,0,-1,1,-3,2076
2.30957E+11,-2,-1,-2,-5,-6,-2,-2,-2,2077
2.30957E+11,-2,-1,-2,-1,-2,0,2,1,2078
2.30957E+11,0,-1,0,-1,1,2,0,0,2079
2.30957E+11,-2,-2,-1,-3,-2,-2,-5,-5,2080
2.30957E+11,2,-1,-1,1,13,2,-1,1,2081
2.30957E+11,-1,-1,1,2,-8,-2,4,-1,2082
2.30957E+11,-2,-1,-2,-4,-1,-1,-6,-3,2083
2.30957E+11,4,0,-3,-2,-3,-3,-1,1,2084
2.30957E+11,-1,-2,0,-2,0,1,-2,2,2085
2.30957E+11,-2,0,1,-2,2,0,-1,3,2086
2.30957E+11,-2,-4,-1,0,-4,3,1,-1,2087
2.30957E+11,-3,2,2,-3,2,2,0,-1,2088
2.30957E+11,1,0,-1,-2,-4,-1,-1,-1,2089
2.30957E+11,-1,-1,-3,1,6,3,-3,0,2090
2.30957E+11,1,-3,0,-3,0,-1,-2,0,2091
2.30957E+11,-2,0,-1,2,2,-1,1,-1,2092
2.30957E+11,0,-1,1,-1,-4,-1,3,-1,2093
2.30957E+11,-2,-2,0,-3,-3,-2,-3,-2,2094
2.30957E+11,-1,-1,-5,0,0,-1,-2,-2,2095
2.30957E+11,-2,-1,-1,1,6,0,0,1,2096
2.30957E+11,-1,1,-1,-1,2,-2,-2,0,2097
2.30957E+11,-1,-3,-3,-4,-7,-4,1,7,2098
2.30957E+11,-1,-2,-2,-1,4,-4,-6,-9,2099
2.30957E+11,2,-3,-2,-4,-5,0,-1,-7,2100
2.30957E+11,-4,0,-3,2,0,-1,-1,-1,2101
2.30957E+11,1,-3,0,1,2,-1,-3,0,2102
2.30957E+11,2,1,0,-1,1,-1,1,1,2103
2.30957E+11,-4,-3,0,0,-2,-3,1,-3,2104
2.30957E+11,1,0,-2,-1,-3,1,1,-2,2105
2.30957E+11,1,0,1,1,-2,2,0,0,2106
2.30957E+11,-2,-1,-2,0,-2,-1,-2,3,2107
2.30957E+11,2,2,0,-1,1,-1,-2,0,2108
2.30957E+11,-1,0,-1,-1,-3,-2,0,-1,2109
2.30957E+11,-4,-3,-2,-1,5,0,-1,-3,2110
2.30957E+11,-1,-2,-1,1,-2,-6,0,0,2111
2.30957E+11,-2,-2,-1,-2,-11,2,-2,0,2112
2.30957E+11,-1,-1,0,-6,-6,-1,-2,0,2113
2.30957E+11,1,-1,-1,1,3,-1,1,1,2114
2.30957E+11,-3,0,2,-2,-3,2,-1,0,2115
2.30957E+11,2,-1,-1,4,5,0,5,-1,2116
2.30957E+11,0,-1,-1,-2,-6,-2,-1,-2,2117
2.30957E+11,-2,-1,0,-2,-1,-3,0,-1,2118
2.30957E+11,-2,-1,-1,-1,-1,1,3,-3,2119
2.30957E+11,0,1,0,-1,-1,-2,-4,-8,2120
2.30957E+11,0,-1,0,3,-2,0,-1,-1,2121
2.30957E+11,-2,0,0,-2,-1,-3,-1,-3,2122
2.30957E+11,2,-1,-1,-1,-1,-1,-6,-4,2123
2.30957E+11,-2,-3,-2,1,1,1,3,7,2124
2.30957E+11,-1,1,-1,-1,2,-1,-2,-1,2125
2.30957E+11,-1,-3,-4,-1,-4,-3,-3,-4,2126
2.30957E+11,-2,0,2,-1,-3,-1,2,-2,2127
2.30957E+11,2,-1,0,-2,-1,0,-2,0,2128
2.30957E+11,1,-4,0,-1,6,-2,-1,0,2129
2.30957E+11,-1,1,-2,-1,-16,1,1,-1,2130
2.30957E+11,-1,1,-2,-1,-1,-1,-2,0,2131
2.30957E+11,0,-1,-2,-3,-4,-4,-1,2,2132
2.30957E+11,-1,-2,-1,0,-4,0,0,0,2133
2.30957E+11,2,-3,-2,-2,3,0,1,-1,2134
2.30957E+11,1,-1,2,-3,0,2,0,3,2135
2.30957E+11,-1,1,1,2,1,-1,-1,0,2136
2.30957E+11,-3,-1,-3,-4,-7,-1,-1,-1,2137
2.30957E+11,-4,0,-1,2,5,2,-1,-1,2138
2.30957E+11,5,0,-3,-3,-6,-2,0,-1,2139
2.30957E+11,-1,-2,-4,-2,0,0,-2,-2,2140
2.30957E+11,1,-1,-1,-1,1,-2,0,1,2141
2.30957E+11,0,1,1,-3,-12,1,0,0,2142
2.30957E+11,1,0,-2,0,-1,-3,-1,2,2143
2.30957E+11,-1,1,0,0,3,-2,2,-1,2144
2.30957E+11,-1,1,-1,1,2,1,-1,-4,2145
2.30957E+11,-2,-2,-3,-7,-11,-5,-6,-1,2146
2.30957E+11,1,-3,-1,1,3,1,-1,-2,2147
2.30957E+11,0,-2,-1,2,-1,1,0,-1,2148
2.30957E+11,3,2,-1,0,6,0,-2,-1,2149
2.30957E+11,-2,-2,-1,1,3,-2,-3,-2,2150
2.30957E+11,0,-4,-3,-4,-4,-1,1,0,2151
2.30957E+11,-3,-3,-2,-1,-3,0,-3,1,2152
2.30958E+11,-2,0,0,-1,3,-2,1,-3,2153
2.30958E+11,3,-1,0,0,1,-1,2,-1,2154
2.30958E+11,-2,1,-1,-1,-2,-1,4,-3,2155
2.30958E+11,-5,-2,0,-1,-2,-3,-8,-5,2156
2.30958E+11,-1,-4,2,0,-1,0,-3,7,2157
2.30958E+11,1,-2,-2,-4,5,-1,-2,-4,2158
2.30958E+11,-4,-2,2,4,-11,1,2,5,2159
2.30958E+11,1,0,-3,-6,-7,3,2,-3,2160
2.30958E+11,-3,-5,0,-1,0,1,-4,2,2161
2.30958E+11,0,1,0,0,7,-1,-6,-8,2162
2.30958E+11,-4,-1,-4,-1,6,-2,0,-9,2163
2.30958E+11,0,0,-2,-1,3,-4,1,-1,2164
2.30958E+11,3,3,0,-4,-19,-2,4,1,2165
2.30958E+11,1,-1,3,5,10,4,1,4,2166
2.30958E+11,-2,0,-1,-5,-2,-1,-4,0,2167
2.30958E+11,-1,-1,0,3,4,1,1,0,2168
2.30958E+11,-3,-2,-4,-1,1,0,0,-2,2169
2.30958E+11,-3,1,0,-2,-6,-3,0,1,2170
2.30958E+11,3,2,0,-1,2,-1,-1,4,2171
2.30958E+11,-3,2,0,0,1,-1,-1,-1,2172
2.30958E+11,0,0,0,2,6,-1,-2,0,2173
2.30958E+11,1,0,-1,-3,-2,0,-4,-4,2174
2.30958E+11,2,-4,-5,-3,4,-2,-3,3,2175
2.30958E+11,-1,-1,-5,-4,-14,-4,-3,3,2176
2.30958E+11,-4,-1,-2,-1,-1,-3,2,-3,2177
2.30958E+11,-2,-4,-3,-1,1,-2,2,3,2178
2.30958E+11,-1,-1,1,-2,1,-2,-4,-7,2179
2.30958E+11,0,-2,0,1,7,1,-3,-5,2180
2.30958E+11,-2,1,-3,3,8,1,0,-7,2181
2.30958E+11,-1,1,-1,-5,-13,-4,1,3,2182
2.30958E+11,-2,-2,1,0,0,-2,0,-2,2183
2.30958E+11,0,2,3,1,-2,0,2,2,2184
2.30958E+11,0,-1,2,0,-2,1,0,0,2185
2.30958E+11,-1,2,0,0,5,0,0,-4,2186
2.30958E+11,-2,-1,-1,3,1,1,-2,-3,2187
2.30958E+11,-1,-3,-2,-2,4,-2,0,1,2188
2.30958E+11,-1,-2,-4,-1,-18,0,0,-1,2189
2.30958E+11,-1,0,1,0,2,1,-1,3,2190
2.30958E+11,1,-1,-3,-2,3,0,1,0,2191
2.30958E+11,-1,-1,-2,-5,-10,-1,-4,-5,2192
2.30958E+11,0,-1,-1,-3,0,-3,-3,0,2193
2.30958E+11,1,-4,0,-2,-2,-1,-2,1,2194
2.30958E+11,0,0,1,1,-2,1,2,2,2195
2.30958E+11,0,1,-1,0,-2,-1,6,1,2196
2.30958E+11,-4,-1,0,-4,0,-1,-11,-5,2197
2.30958E+11,-3,-1,-3,-3,-3,-3,-1,-1,2198
2.30958E+11,-1,0,1,4,5,-1,-1,2,2199
2.30958E+11,-2,-2,-1,-3,-5,0,-1,-1,2200
2.30958E+11,-2,1,-1,-1,-2,1,4,4,2201
2.30958E+11,0,-1,-4,1,3,0,-3,-1,2202
2.30958E+11,0,0,-2,-3,3,-2,0,-1,2203
2.30958E+11,-1,-2,-1,3,-11,-1,-2,3,2204
2.30958E+11,0,1,0,1,-4,-2,3,0,2205
2.30958E+11,0,0,-1,1,1,0,0,-2,2206
2.30958E+11,1,1,1,-1,-1,0,1,2,2207
2.30958E+11,1,-1,1,0,6,3,1,4,2208
2.30958E+11,2,-3,-3,-2,-2,-4,-3,-3,2209
2.30958E+11,0,-1,-3,0,-1,3,3,1,2210
2.30958E+11,-2,-1,-1,-1,-1,1,-1,-1,2211
2.30958E+11,-1,0,-1,0,0,-2,0,1,2212
2.30958E+11,-3,-1,1,-4,-1,-2,-2,0,2213
2.30958E+11,1,-1,-1,0,4,3,2,-2,2214
2.30958E+11,0,1,-3,1,0,-1,-7,-2,2215
2.30958E+11,0,-1,-1,-1,0,1,1,1,2216
2.30958E+11,1,1,-1,0,-16,0,3,-2,2217
2.30958E+11,-1,1,-1,0,0,-2,2,2,2218
2.30958E+11,-3,-5,-2,-5,-7,-4,-9,-1,2219
2.30958E+11,1,1,-1,-2,3,-2,-8,-5,2220
2.30958E+11,2,-1,-1,1,4,-1,0,-6,2221
2.30958E+11,-1,0,-2,-3,-2,0,0,-2,2222
2.30958E+11,-1,0,1,2,-5,0,3,-1,2223
2.30958E+11,1,-2,-1,0,6,1,3,3,2224
2.30958E+11,-2,0,0,-2,2,1,-2,-3,2225
2.30958E+11,0,0,0,0,-1,-1,-4,2,2226
2.30958E+11,-1,1,-2,0,0,-4,4,-2,2227
2.30958E+11,-3,-1,2,1,1,0,-2,-5,2228
2.30958E+11,1,-2,-5,1,11,1,0,-2,2229
2.30958E+11,-1,-2,0,0,-5,-5,-1,1,2230
2.30958E+11,-1,0,-1,-4,-8,2,1,1,2231
2.30958E+11,0,1,-3,-1,2,-1,1,-2,2232
2.30958E+11,-2,1,0,0,4,-2,-2,-8,2233
2.30958E+11,-8,-3,-5,-1,-2,0,-4,0,2234
2.30958E+11,0,-1,-1,0,-1,-4,2,-1,2235
2.30958E+11,-1,-1,3,-3,-19,-3,0,-2,2236
2.30958E+11,-2,-2,0,0,0,-1,-7,-2,2237
2.30958E+11,-1,-1,-1,1,0,0,-1,-4,2238
2.30958E+11,-1,1,-2,-1,0,-1,-4,-5,2239
2.30958E+11,-2,1,-2,0,2,2,0,-3,2240
2.30958E+11,1,-1,0,1,1,3,5,1,2241
2.30958E+11,-2,0,0,-1,-4,-3,-1,-3,2242
2.30958E+11,-1,-3,-1,0,4,1,-3,0,2243
2.30958E+11,-2,0,-2,0,2,-3,0,0,2244
2.30958E+11,0,-3,-2,-1,-2,-2,1,1,2245
2.30958E+11,1,-1,1,1,3,0,0,-2,2246
2.30958E+11,-2,-2,-2,1,-3,0,0,0,2247
2.30958E+11,-2,-6,-2,-1,2,-1,-2,-3,2248
2.30958E+11,-4,-2,1,2,0,-1,2,3,2249
2.30958E+11,0,0,-3,-3,-5,-1,-3,-3,2250
2.30958E+11,2,-2,0,1,2,3,-3,-3,2251
2.30958E+11,-1,-3,1,-4,-8,-3,-1,-1,2252
2.30958E+11,0,-2,-2,-2,5,1,-1,1,2253
2.30958E+11,1,-2,1,2,2,-1,1,-2,2254
2.30958E+11,2,1,-2,-3,0,1,2,0,2255
2.30958E+11,2,-1,-4,-1,2,-1,2,2,2256
2.30958E+11,0,2,2,1,0,-4,2,1,2257
2.30958E+11,-1,-3,-3,-5,1,-1,-5,-1,2258
2.30958E+11,-2,1,1,1,-3,-5,1,-6,2259
2.30958E+11,2,-4,-2,1,3,-2,-1,-2,2260
2.30958E+11,0,-1,-2,-3,-8,-3,-1,5,2261
2.30958E+11,-1,1,2,0,-1,0,0,-1,2262
2.30958E+11,-4,2,-4,-1,1,-1,-4,-1,2263
2.30958E+11,-3,-1,-2,-1,2,-1,-2,-2,2264
2.30958E+11,1,0,0,1,-4,2,1,-2,2265
2.30958E+11,3,0,1,-1,-5,0,2,0,2266
2.30958E+11,1,-2,0,0,2,-3,-2,-2,2267
2.30958E+11,-1,4,-1,-1,0,0,1,0,2268
2.30958E+11,0,-4,-5,-2,1,-1,-3,-2,2269
2.30958E+11,-1,-1,-4,0,1,-1,1,0,2270
2.30958E+11,2,2,1,-1,-6,0,2,0,2271
2.30958E+11,-1,-3,-1,0,-9,-1,-3,-4,2272
2.30958E+11,-4,1,-2,0,1,-1,-2,1,2273
2.30958E+11,-1,2,4,3,11,2,-3,-4,2274
2.30958E+11,0,-3,-4,-9,-17,0,5,8,2275
2.30958E+11,1,-1,3,1,6,-3,-3,1,2276
2.30958E+11,-1,0,-3,-2,4,2,4,-5,2277
2.30958E+11,-3,1,-3,-1,-6,-4,-6,0,2278
2.30958E+11,-2,-2,1,4,6,1,-2,-4,2279
2.30958E+11,0,-1,-1,1,1,0,-2,4,2280
2.30958E+11,2,-2,0,-3,-3,-4,2,-5,2281
2.30958E+11,-1,-2,-4,-3,-3,-4,-1,-1,2282
2.30958E+11,-2,0,-2,-1,1,-3,-2,-3,2283
2.30958E+11,-2,0,-1,-2,-2,-1,-1,-2,2284
2.30958E+11,0,-3,0,-1,1,1,-4,4,2285
2.30958E+11,3,-3,-2,0,-1,-1,-1,-2,2286
2.30958E+11,0,-1,-3,0,-2,0,0,-1,2287
2.30958E+11,4,2,-2,-1,-2,1,0,3,2288
2.30958E+11,-2,0,0,1,7,0,0,-1,2289
2.30958E+11,-1,-1,-1,-3,-2,-1,2,-1,2290
2.30958E+11,0,-2,1,0,3,0,1,6,2291
2.30958E+11,-8,-5,0,-4,-5,-1,-1,-5,2292
2.30958E+11,0,0,-1,-2,-3,0,-1,3,2293
2.30958E+11,-3,-2,-1,-1,4,0,0,4,2294
2.30958E+11,-2,-4,-2,1,1,-1,-1,-8,2295
2.30958E+11,-1,-2,-5,-3,6,1,2,1,2296
2.30958E+11,1,-2,0,-2,-5,-2,-9,-1,2297
2.30958E+11,1,-1,-1,-2,-6,-4,2,-1,2298
2.30958E+11,2,1,1,-1,0,0,-6,-2,2299
2.30958E+11,-2,1,0,5,5,1,6,-3,2300
2.30958E+11,-2,0,-3,-2,-8,-4,-7,-6,2301
2.30958E+11,-2,-1,0,-1,-3,1,2,-2,2302
2.30958E+11,-1,1,-1,0,0,-5,-3,1,2303
2.30958E+11,-3,-1,0,-2,-3,-1,-4,-4,2304
2.30958E+11,1,-1,-2,-1,2,2,5,4,2305
2.30958E+11,-4,-2,-2,-3,-13,-1,-2,-1,2306
2.30958E+11,0,0,-2,-2,-4,0,2,2,2307
2.30958E+11,1,0,-1,1,4,-1,-1,1,2308
2.30958E+11,-2,-1,1,0,-3,1,2,0,2309
2.30958E+11,2,-1,-1,0,0,0,0,4,2310
2.30958E+11,-4,1,-2,1,2,-2,0,0,2311
2.30958E+11,2,1,2,1,-3,2,0,-2,2312
2.30958E+11,-2,-1,-3,-3,-2,1,-2,-1,2313
2.30958E+11,0,1,0,1,5,-1,-2,-3,2314
2.30958E+11,-1,-4,-2,1,-3,2,3,4,2315
2.30958E+11,-1,-2,-2,1,7,-3,-7,-6,2316
2.30958E+11,-5,-1,-1,-2,-4,-2,6,3,2317
2.30958E+11,-4,-1,-3,-1,-3,-1,-1,-10,2318
2.30958E+11,-1,-1,-2,-1,16,0,-4,3,2319
2.30958E+11,-2,-2,0,-3,-12,-4,0,4,2320
2.30958E+11,1,-3,-1,3,8,0,-4,1,2321
2.30958E+11,-1,2,1,1,4,3,4,-5,2322
2.30958E+11,0,-2,-1,-3,0,0,5,1,2323
2.30958E+11,-2,1,-4,-2,1,0,-9,-4,2324
2.30958E+11,-5,2,0,-1,-1,0,-3,-1,2325
2.30958E+11,2,1,-1,3,5,0,-1,4,2326
2.30958E+11,1,-2,1,0,-7,-2,-8,-7,2327
2.30958E+11,-1,0,0,-2,0,0,5,0,2328
2.30958E+11,-2,0,-2,1,-2,0,1,-1,2329
2.30958E+11,0,-3,0,-2,-1,0,-1,3,2330
2.30958E+11,-3,1,0,-2,-3,0,3,0,2331
2.30958E+11,4,-1,0,0,2,-1,0,-1,2332
2.30958E+11,-2,-2,1,0,-1,0,-3,-3,2333
2.30958E+11,-1,-2,-1,-3,-4,-1,1,3,2334
2.30958E+11,-3,-2,0,1,0,-2,1,-2,2335
2.30958E+11,0,-1,-3,-6,-4,-4,1,-2,2336
2.30958E+11,-4,-3,-5,-1,6,1,-1,0,2337
2.30958E+11,-1,0,-1,-1,-18,-5,-3,-8,2338
2.30958E+11,2,3,1,1,-4,1,4,2,2339
2.30958E+11,-1,-2,1,-1,1,0,4,0,2340
2.30958E+11,2,-4,-1,-1,-5,-4,-8,-1,2341
2.30958E+11,-1,-1,2,-2,1,1,-2,0,2342
2.30958E+11,-1,-2,-6,-5,1,2,0,-9,2343
2.30958E+11,-2,-2,-1,1,0,-2,1,-5,2344
2.30958E+11,-1,0,0,-1,-2,5,3,0,2345
2.30958E+11,-1,-1,-2,3,3,0,-3,2,2346
2.30958E+11,-1,0,2,-3,-5,-3,-1,-3,2347
2.30958E+11,-1,0,2,1,3,3,-4,1,2348
2.30958E+11,-3,-2,0,-3,-4,-1,2,0,2349
2.30958E+11,6,0,0,-1,5,-2,0,2,2350
2.30958E+11,2,-2,1,-1,-3,-2,1,2,2351
2.30958E+11,-1,-1,-4,2,1,-2,-2,-1,2352
2.30959E+11,2,1,2,0,-1,-3,0,2,2353
2.30959E+11,-4,-1,-3,-3,-3,2,11,3,2354
2.30959E+11,1,-2,-1,-2,-1,-4,-6,-4,2355
2.30959E+11,-2,-3,-1,-1,-3,-2,-2,-1,2356
2.30959E+11,1,-1,-2,-2,-2,-2,-2,0,2357
2.30959E+11,-2,-5,-1,-3,1,-3,3,-3,2358
2.30959E+11,1,0,0,1,1,1,-1,1,2359
2.30959E+11,-3,1,-2,0,0,1,2,2,2360
2.30959E+11,3,-2,0,-1,0,-2,-3,-8,2361
2.30959E+11,-2,0,-1,1,1,-1,-7,-1,2362
2.30959E+11,-1,-3,-1,-3,3,-1,3,0,2363
2.30959E+11,1,-2,-2,-2,-8,-1,-1,-1,2364
2.30959E+11,2,3,1,1,3,3,3,1,2365
2.30959E+11,-3,-1,-1,-1,2,-1,-7,-2,2366
2.30959E+11,-3,1,-1,-3,-7,1,-1,1,2367
2.30959E+11,3,-3,-1,0,1,0,-1,-2,2368
2.30959E+11,1,0,-2,-4,-2,-1,3,-1,2369
2.30959E+11,-1,-2,-1,1,-1,-2,0,-2,2370
2.30959E+11,-5,0,0,0,1,-1,0,5,2371
2.30959E+11,-2,0,-1,1,1,1,2,-3,2372
2.30959E+11,-2,-2,-2,-1,-4,2,-5,-3,2373
2.30959E+11,-2,2,1,-2,1,2,-1,0,2374
2.30959E+11,-2,-2,0,-2,-3,-1,-2,-4,2375
2.30959E+11,-1,-1,0,-2,-5,-1,2,10,2376
2.30959E+11,1,-3,0,-1,24,-1,0,2,2377
2.30959E+11,0,2,-1,0,-28,-6,-8,0,2378
2.30959E+11,0,-3,-1,4,0,3,5,-1,2379
2.30959E+11,0,-2,1,2,7,-7,-8,-5,2380
2.30959E+11,-3,3,-2,-6,-10,3,3,0,2381
2.30959E+11,-1,-1,-1,1,7,-1,-1,0,2382
2.30959E+11,0,1,-3,1,-1,0,-3,-1,2383
2.30959E+11,2,0,-2,1,-5,-2,-4,1,2384
2.30959E+11,1,0,-1,0,-3,-1,-1,-2,2385
2.30959E+11,0,-4,-3,-3,3,-1,-1,-5,2386
2.30959E+11,-2,1,0,-2,-5,1,-1,-3,2387
2.30959E+11,-3,-1,-1,-3,4,2,1,0,2388
2.30959E+11,-5,0,-2,1,-5,-3,-1,1,2389
2.30959E+11,-5,0,-4,-3,0,0,3,4,2390
2.30959E+11,-3,-1,-2,0,5,-2,1,4,2391
2.30959E+11,-1,0,-1,-4,-3,1,-2,-6,2392
2.30959E+11,1,0,3,-1,-5,-1,0,1,2393
2.30959E+11,1,0,1,0,4,2,3,2,2394
2.30959E+11,-1,2,-1,-1,1,-5,-6,-4,2395
2.30959E+11,0,-3,-2,-1,14,-2,0,-3,2396
2.30959E+11,2,-1,-2,0,-10,-3,2,3,2397
2.30959E+11,-1,-1,0,-5,3,6,1,-4,2398
2.30959E+11,1,-2,-1,-1,-4,-7,-9,-10,2399
2.30959E+11,1,4,0,-2,-6,2,3,4,2400
2.30959E+11,-4,-1,-2,1,5,-3,0,-5,2401
2.30959E+11,2,-3,1,2,2,1,-1,0,2402
2.30959E+11,-3,-1,-1,-1,-2,2,9,7,2403
2.30959E+11,-3,-1,-2,-1,-3,-2,-13,-7,2404
2.30959E+11,0,-2,-1,0,-1,2,5,-1,2405
2.30959E+11,-2,1,-1,-2,-3,-3,-3,2,2406
2.30959E+11,1,-2,-2,0,0,1,-4,2,2407
2.30959E+11,0,1,-2,-2,-2,0,3,1,2408
2.30959E+11,0,0,-1,-1,-2,0,-2,-2,2409
2.30959E+11,0,-1,0,0,1,-2,1,-2,2410
2.30959E+11,-1,3,1,1,1,-2,-3,0,2411
2.30959E+11,-1,-2,0,-4,-6,1,2,2,2412
2.30959E+11,0,-4,0,1,3,-2,-3,-6,2413
2.30959E+11,1,-1,0,2,-1,0,1,-1,2414
2.30959E+11,1,-1,0,-3,6,0,-1,-4,2415
2.30959E+11,-2,-1,-1,1,-10,0,3,5,2416
2.30959E+11,-3,-1,1,3,6,2,-1,3,2417
2.30959E+11,3,0,-2,-1,-3,5,7,0,2418
2.30959E+11,-3,0,0,-4,-5,-13,-11,2,2419
2.30959E+11,-1,1,0,1,-5,0,4,-2,2420
2.30959E+11,0,-2,-2,-4,-2,1,0,5,2421
2.30959E+11,-3,-2,1,0,3,-1,2,-5,2422
2.30959E+11,2,0,-3,-2,-2,4,0,2,2423
2.30959E+11,1,-4,-2,2,0,-1,-1,0,2424
2.30959E+11,2,0,0,0,-3,-4,-3,-2,2425
2.30959E+11,-2,-1,-3,-1,-2,-2,-7,0,2426
2.30959E+11,2,-3,-2,-1,-5,0,2,0,2427
2.30959E+11,-3,0,1,0,2,-3,-3,0,2428
2.30959E+11,-3,1,-3,-1,0,1,1,-1,2429
2.30959E+11,1,-3,-1,-2,-1,-3,-3,1,2430
2.30959E+11,-3,1,-1,0,-2,1,1,-1,2431
2.30959E+11,2,0,0,0,2,0,1,3,2432
2.30959E+11,-2,2,1,-2,9,3,-3,-2,2433
2.30959E+11,-1,2,-1,0,-14,-3,0,-1,2434
2.30959E+11,3,-2,0,3,4,2,6,1,2435
2.30959E+11,2,0,-2,0,2,0,-9,-3,2436
2.30959E+11,-4,2,-3,-4,-6,-4,-1,1,2437
2.30959E+11,0,-3,-2,4,14,-1,-2,-1,2438
2.30959E+11,0,-3,-2,-6,-12,-4,-4,-5,2439
2.30959E+11,-3,0,0,-3,-6,-3,-2,8,2440
2.30959E+11,-2,-3,-1,-1,0,-3,1,-5,2441
2.30959E+11,-2,2,-1,-1,1,-1,-1,-2,2442
2.30959E+11,1,0,1,1,3,-2,-1,0,2443
2.30959E+11,-3,-2,-4,-3,2,-2,-1,-2,2444
2.30959E+11,-1,-1,-4,0,-7,-1,-4,0,2445
2.30959E+11,-2,2,1,0,-1,-1,-1,3,2446
2.30959E+11,1,-2,-1,-2,-1,0,2,-3,2447
2.30959E+11,-2,-1,0,-2,-2,0,-1,-2,2448
2.30959E+11,-2,-2,-1,3,-1,-1,-1,-2,2449
2.30959E+11,-3,-4,-1,-3,-2,-1,0,-1,2450
2.30959E+11,0,-1,0,1,1,1,0,2,2451
2.30959E+11,-1,0,0,1,1,0,0,-4,2452
2.30959E+11,1,0,0,-2,-3,-1,2,-2,2453
2.30959E+11,-3,-2,-1,-3,-1,-2,-6,-2,2454
2.30959E+11,-5,-2,-2,-5,-5,-1,4,-7,2455
2.30959E+11,-1,1,0,-4,2,-2,-3,-1,2456
2.30959E+11,-1,0,0,2,3,1,2,0,2457
2.30959E+11,-3,-1,-4,0,-4,-1,-3,-5,2458
2.30959E+11,-1,-3,-1,1,1,-1,-4,1,2459
2.30959E+11,1,-1,-1,0,0,-1,5,-5,2460
2.30959E+11,2,-1,0,-3,-3,-2,-1,2,2461
2.30959E+11,2,-4,-2,0,3,-1,-4,4,2462
2.30959E+11,-4,1,-2,-2,-2,-3,3,-2,2463
2.30959E+11,2,-2,-2,-1,1,-1,-5,-4,2464
2.30959E+11,-2,-1,-3,-1,-1,-3,-3,-3,2465
2.30959E+11,2,-2,0,0,0,-1,1,0,2466
2.30959E+11,-3,-3,-2,0,-1,2,-3,1,2467
2.30959E+11,-2,1,-1,-1,-4,0,1,1,2468
2.30959E+11,0,0,-1,0,-3,-3,-1,-1,2469
2.30959E+11,0,-4,-1,-1,-1,-3,1,1,2470
2.30959E+11,2,-1,-1,-2,11,1,-3,0,2471
2.30959E+11,-2,2,-1,-2,-7,1,-1,-2,2472
2.30959E+11,-3,-2,-1,-2,-2,-2,1,-1,2473
2.30959E+11,3,-1,1,4,6,-2,-1,-3,2474
2.30959E+11,-3,-1,-3,-5,-14,-7,1,-5,2475
2.30959E+11,-3,-3,-2,-2,0,-4,-7,-3,2476
2.30959E+11,-4,-2,-1,-2,0,-2,-2,1,2477
2.30959E+11,2,0,-3,0,-1,-3,-4,2,2478
2.30959E+11,-3,0,0,1,-1,2,-1,0,2479
2.30959E+11,0,0,0,1,4,0,-1,-3,2480
2.30959E+11,-1,-1,-3,-4,-9,-5,-5,-8,2481
2.30959E+11,-4,1,0,-2,-3,-1,1,2,2482
2.30959E+11,2,-4,-2,0,-1,-1,-1,-3,2483
2.30959E+11,-1,-2,-1,0,-2,-1,2,3,2484
2.30959E+11,-3,-1,2,1,6,0,3,-1,2485
2.30959E+11,-1,0,-1,-3,-5,0,3,-2,2486
2.30959E+11,-1,-1,0,-1,-1,0,0,0,2487
2.30959E+11,0,1,0,4,4,0,3,-2,2488
2.30959E+11,2,0,-1,-1,-3,0,2,3,2489
2.30959E+11,0,-1,-3,-4,-2,-2,-3,-2,2490
2.30959E+11,-2,-2,-3,-2,-3,0,-5,-1,2491
2.30959E+11,-3,1,0,2,6,2,-3,-1,2492
2.30959E+11,1,0,-4,-2,-4,0,-1,-1,2493
2.30959E+11,0,0,-1,0,-7,-4,0,1,2494
2.30959E+11,-2,2,-1,-1,3,-2,-2,1,2495
2.30959E+11,-2,-4,1,-2,-1,-2,0,0,2496
2.30959E+11,0,1,1,-1,2,-2,-1,1,2497
2.30959E+11,0,0,1,1,-3,2,-2,-7,2498
2.30959E+11,0,1,-3,-3,-5,-1,-4,7,2499
2.30959E+11,-4,-3,-4,0,0,-1,4,2,2500
2.30959E+11,-3,-1,1,1,0,-1,1,0,2501
2.30959E+11,0,0,0,-2,1,0,-2,-1,2502
2.30959E+11,-4,0,0,3,1,-1,1,-2,2503
2.30959E+11,-2,-1,0,-3,-4,0,0,2,2504
2.30959E+11,2,-2,-1,1,-2,0,-2,0,2505
2.30959E+11,-2,-1,-2,-2,0,1,3,2,2506
2.30959E+11,1,-4,0,0,1,-2,-2,0,2507
2.30959E+11,0,-3,-2,-2,-2,-2,1,-1,2508
2.30959E+11,0,0,0,1,-1,0,1,0,2509
2.30959E+11,-3,0,2,1,3,-1,0,-1,2510
2.30959E+11,0,2,1,0,2,1,0,1,2511
2.30959E+11,-1,-1,-3,1,-16,-2,0,5,2512
2.30959E+11,2,0,0,-2,4,3,2,-1,2513
2.30959E+11,-3,-1,-4,-6,-11,-5,-7,0,2514
2.30959E+11,2,-3,-1,2,3,-3,-2,-6,2515
2.30959E+11,1,0,0,-2,-1,-1,3,0,2516
2.30959E+11,0,-2,0,1,0,1,-1,-2,2517
2.30959E+11,-3,-2,-1,2,8,5,-1,2,2518
2.30959E+11,-1,-1,-1,-5,-12,1,4,2,2519
2.30959E+11,-1,-2,-1,0,2,-1,-1,-2,2520
2.30959E+11,0,-2,-4,-2,-3,-1,0,-4,2521
2.30959E+11,1,0,-1,0,1,-4,-10,-3,2522
2.30959E+11,-1,-2,-1,4,3,2,0,0,2523
2.30959E+11,1,0,-1,-2,-1,2,-1,-2,2524
2.30959E+11,-7,-1,-3,-2,-3,-5,-5,0,2525
2.30959E+11,-3,-1,1,0,-1,-1,4,-2,2526
2.30959E+11,-5,-1,0,-1,2,0,2,-3,2527
2.30959E+11,-1,2,1,-1,-1,1,-2,-5,2528
2.30959E+11,-2,-4,-1,0,-1,0,1,1,2529
2.30959E+11,2,1,-1,-2,-2,-1,-1,1,2530
2.30959E+11,1,-1,-1,0,0,0,-1,-4,2531
2.30959E+11,-3,-2,0,-2,0,-3,-2,2,2532
2.30959E+11,-2,-1,-1,0,-2,-3,-7,-1,2533
2.30959E+11,-5,-2,-1,-1,-3,-2,4,-4,2534
2.30959E+11,2,1,0,0,-7,-1,-4,-2,2535
2.30959E+11,1,-3,-3,-5,5,5,3,-2,2536
2.30959E+11,0,1,-1,-2,-6,-6,-13,2,2537
2.30959E+11,1,0,1,-5,-9,-5,-3,-11,2538
2.30959E+11,0,2,1,4,5,1,1,5,2539
2.30959E+11,-1,-2,0,0,1,-5,-5,-7,2540
2.30959E+11,2,-2,1,0,1,0,1,5,2541
2.30959E+11,-1,-1,-2,-3,-1,4,3,0,2542
2.30959E+11,0,0,1,-1,-1,-1,-1,1,2543
2.30959E+11,-2,0,-2,1,-1,-2,2,2,2544
2.30959E+11,1,2,-1,0,0,2,1,-1,2545
2.30959E+11,-1,-1,-3,1,1,-3,2,-3,2546
2.30959E+11,0,-4,-2,-1,-1,-1,0,1,2547
2.30959E+11,2,-1,-2,0,-5,0,3,1,2548
2.30959E+11,-4,-1,1,-2,2,0,-3,-10,2549
2.30959E+11,-3,-1,-2,-2,1,-5,-3,1,2550
2.30959E+11,-2,-3,-3,-1,-1,-1,-7,-3,2551
2.30959E+11,0,-1,-1,3,3,0,-4,3,2552
2.3096E+11,0,-1,-2,-3,-3,0,-1,-13,2553
2.3096E+11,2,-3,-1,2,16,6,3,1,2554
2.3096E+11,-1,3,-2,-7,-16,-9,-4,5,2555
2.3096E+11,-2,-1,0,0,1,-2,0,-1,2556
2.3096E+11,0,-3,-2,-1,-4,0,4,1,2557
2.3096E+11,2,-2,-1,1,2,3,-3,0,2558
2.3096E+11,-2,1,2,2,4,-1,4,0,2559
2.3096E+11,0,-1,1,0,-1,2,-1,-6,2560
2.3096E+11,0,-1,-3,2,-1,-3,-1,3,2561
2.3096E+11,1,1,-2,-2,-4,-1,2,-3,2562
2.3096E+11,-4,-1,-2,-2,2,-1,1,1,2563
2.3096E+11,0,0,-3,-1,-3,-5,-7,-3,2564
2.3096E+11,-2,-1,0,-4,0,1,1,-4,2565
2.3096E+11,-2,0,0,-2,-4,-2,-2,3,2566
2.3096E+11,1,-2,-1,1,-1,2,-2,-4,2567
2.3096E+11,2,-1,1,-5,-8,-2,2,3,2568
2.3096E+11,-1,-1,0,-1,0,-1,-2,3,2569
2.3096E+11,-3,-2,1,-3,-5,0,4,1,2570
2.3096E+11,1,0,0,2,-3,2,-8,-9,2571
2.3096E+11,-5,-1,-3,-1,7,1,-6,-4,2572
2.3096E+11,1,1,-1,-3,-2,0,-1,3,2573
2.3096E+11,1,-4,2,1,-10,-5,2,1,2574
2.3096E+11,-1,-2,-2,0,2,1,2,-4,2575
2.3096E+11,2,0,0,1,0,0,-6,1,2576
2.3096E+11,-2,-1,-2,-2,1,-1,1,-4,2577
2.3096E+11,-2,1,-2,0,5,-1,-7,-1,2578
2.3096E+11,-2,-4,-1,-5,-6,-2,3,3,2579
2.3096E+11,-2,-1,-1,-2,-3,-2,1,3,2580
2.3096E+11,-1,-1,-1,1,3,0,1,3,2581
2.3096E+11,1,-3,0,-1,-1,1,0,3,2582
2.3096E+11,0,-1,-2,2,3,-2,3,2,2583
2.3096E+11,-1,-2,-2,-1,-2,0,0,-6,2584
2.3096E+11,-2,-3,-1,-2,-3,0,0,0,2585
2.3096E+11,-2,-1,-1,-1,0,-1,0,-1,2586
2.3096E+11,-3,-1,1,-1,1,-2,-2,0,2587
2.3096E+11,-4,-1,-3,1,-5,-1,6,3,2588
2.3096E+11,2,1,0,0,4,-3,-3,0,2589
2.3096E+11,-4,-2,-4,-1,4,3,0,-1,2590
2.3096E+11,-3,-1,1,-2,-6,0,2,-4,2591
2.3096E+11,1,-2,0,-2,2,1,2,3,2592
2.3096E+11,-2,1,-1,1,-9,-3,-1,0,2593
2.3096E+11,-1,1,1,0,5,-1,0,0,2594
2.3096E+11,1,-3,-4,-3,-1,-1,-3,0,2595
2.3096E+11,3,-4,-1,0,2,-3,-3,0,2596
2.3096E+11,-2,0,1,2,1,2,4,0,2597
2.3096E+11,-2,-1,0,2,0,-1,0,3,2598
2.3096E+11,-1,1,-3,-4,-4,-1,-3,-3,2599
2.3096E+11,-2,0,-1,-2,-2,0,-1,-1,2600
2.3096E+11,-1,-2,0,-1,-2,2,0,-2,2601
2.3096E+11,0,-2,-1,0,-1,1,0,4,2602
2.3096E+11,-1,0,-3,0,3,-1,-3,-2,2603
2.3096E+11,-1,1,-2,-4,-5,-1,0,-3,2604
2.3096E+11,1,0,1,-2,3,-1,-3,3,2605
2.3096E+11,0,-1,0,-3,-8,-1,-3,-1,2606
2.3096E+11,1,-3,0,2,2,0,1,1,2607
2.3096E+11,-4,0,-1,-1,1,0,1,-1,2608
2.3096E+11,-1,-5,-2,1,12,0,-1,-1,2609
2.3096E+11,1,2,-1,-6,-8,-5,-2,-2,2610
2.3096E+11,-2,0,-2,-3,-6,-5,1,-1,2611
2.3096E+11,1,-2,-1,2,-4,1,-6,-4,2612
2.3096E+11,-2,-1,-1,2,5,1,-1,-3,2613
2.3096E+11,0,-2,-4,-5,-5,-1,2,3,2614
2.3096E+11,1,-3,-2,2,13,3,0,-3,2615
2.3096E+11,0,1,-1,-5,-10,-3,-3,7,2616
2.3096E+11,2,2,1,-1,-6,-3,-1,0,2617
2.3096E+11,0,-1,2,-1,-2,0,-1,0,2618
2.3096E+11,-5,-1,0,0,-4,-1,-2,-3,2619
2.3096E+11,-2,-2,2,0,3,-1,1,2,2620
2.3096E+11,-2,-6,-4,-3,-4,-3,-1,-1,2621
2.3096E+11,-3,0,0,-1,0,-2,0,-5,2622
2.3096E+11,-1,-1,-2,-1,0,-3,1,4,2623
2.3096E+11,-2,-2,1,1,1,-1,-2,-5,2624
2.3096E+11,-3,-3,-1,-2,-6,-2,0,1,2625
2.3096E+11,1,-1,-1,-2,-3,-2,0,-6,2626
2.3096E+11,-1,-4,0,0,1,2,-2,0,2627
2.3096E+11,-2,3,-4,-2,1,-4,-1,-5,2628
2.3096E+11,-3,-1,0,-3,-9,2,3,-1,2629
2.3096E+11,-1,-6,-2,2,-3,2,2,6,2630
2.3096E+11,0,2,-1,-2,2,-2,-5,-1,2631
2.3096E+11,0,-1,1,4,4,-3,1,0,2632
2.3096E+11,4,1,-1,1,-5,2,0,0,2633
2.3096E+11,-3,0,-3,-5,0,-4,-4,-5,2634
2.3096E+11,-1,-2,-2,-3,-3,1,4,4,2635
2.3096E+11,0,-2,-1,0,-3,0,-1,-2,2636
2.3096E+11,-1,-1,-1,0,6,-1,-3,-2,2637
2.3096E+11,-3,-2,-1,1,-3,-3,-1,-6,2638
2.3096E+11,2,1,-2,-1,1,2,5,1,2639
2.3096E+11,1,-7,-4,-2,-3,-4,-4,-2,2640
2.3096E+11,0,0,-3,-1,-2,-3,2,-2,2641
2.3096E+11,2,1,1,1,1,0,-1,-1,2642
2.3096E+11,-1,2,0,-2,-1,-2,-3,-2,2643
2.3096E+11,-1,0,0,2,4,3,4,0,2644
2.3096E+11,-1,-1,-2,-2,7,1,-5,-1,2645
2.3096E+11,-2,0,-1,0,0,-1,-1,-4,2646
2.3096E+11,1,0,0,2,4,0,-3,-3,2647
2.3096E+11,2,0,0,-5,-14,-5,2,2,2648
2.3096E+11,-1,-4,-3,-3,-1,-3,-3,5,2649
2.3096E+11,-3,1,-2,2,3,-2,-4,-8,2650
2.3096E+11,-4,-1,1,-1,-1,1,-1,-1,2651
2.3096E+11,3,-1,-1,-2,1,3,-2,-5,2652
2.3096E+11,-1,3,-4,-4,-5,-1,-2,1,2653
2.3096E+11,0,-5,-2,1,1,-1,0,1,2654
2.3096E+11,-1,-2,-1,2,-1,-1,1,6,2655
2.3096E+11,-1,1,-2,1,4,1,-1,-10,2656
2.3096E+11,2,1,2,-2,-9,-3,2,-3,2657
2.3096E+11,1,-2,-1,0,1,0,1,-1,2658
2.3096E+11,-1,-3,-1,-2,-3,-3,1,1,2659
2.3096E+11,-4,3,-1,1,1,0,-3,2,2660
2.3096E+11,-2,-1,-1,2,-5,-1,1,-4,2661
2.3096E+11,-3,-2,-1,0,2,-1,-1,2,2662
2.3096E+11,-1,-1,0,-3,-5,-1,0,-2,2663
2.3096E+11,-3,-2,1,-2,-14,-1,-1,3,2664
2.3096E+11,0,2,-2,0,0,1,-4,0,2665
2.3096E+11,1,2,3,1,-5,2,2,0,2666
2.3096E+11,-4,1,-1,-1,1,0,-1,-2,2667
2.3096E+11,-2,-1,-2,-3,-2,-2,-3,1,2668
2.3096E+11,0,-1,3,-1,1,-2,3,1,2669
2.3096E+11,-1,1,-2,-1,-3,-1,-2,-7,2670
2.3096E+11,-1,-2,-2,1,3,1,-4,0,2671
2.3096E+11,-1,-1,-2,-4,-5,-2,2,1,2672
2.3096E+11,1,-1,0,3,0,-1,-3,2,2673
2.3096E+11,3,-4,1,1,0,-1,2,3,2674
2.3096E+11,1,-1,0,1,3,-5,-2,-3,2675
2.3096E+11,0,-1,-1,-1,4,1,1,-3,2676
2.3096E+11,-1,-2,-2,0,-2,-1,0,3,2677
2.3096E+11,-1,3,-2,-2,-3,-1,-3,4,2678
2.3096E+11,-3,-5,-1,-1,-4,-2,-5,-7,2679
2.3096E+11,3,0,0,1,1,1,1,6,2680
2.3096E+11,0,-1,-2,2,6,0,2,-4,2681
2.3096E+11,0,-1,-1,-2,-2,-1,-1,0,2682
2.3096E+11,1,0,-1,1,-13,1,0,1,2683
2.3096E+11,-2,-3,-1,-1,-1,-5,-1,-3,2684
2.3096E+11,-3,-2,-1,-1,2,0,-1,-2,2685
2.3096E+11,-1,1,0,-1,-6,-4,-2,2,2686
2.3096E+11,-1,1,-2,-4,-1,-1,-2,-7,2687
2.3096E+11,-1,-3,-3,0,3,1,-2,-1,2688
2.3096E+11,-3,2,-2,0,-4,-2,0,-2,2689
2.3096E+11,-1,-2,-4,1,5,0,-5,-3,2690
2.3096E+11,-1,0,2,-3,-5,-4,-4,-5,2691
2.3096E+11,0,2,2,-1,3,-1,-1,-1,2692
2.3096E+11,-1,0,-3,-7,-4,-1,-1,-2,2693
2.3096E+11,-1,-3,-1,-1,1,1,1,2,2694
2.3096E+11,-1,-2,-2,2,1,-3,-1,1,2695
2.3096E+11,-2,0,1,4,0,0,-3,-3,2696
2.3096E+11,-1,-2,0,0,-4,0,1,0,2697
2.3096E+11,0,0,-2,1,-5,-3,-1,0,2698
2.3096E+11,1,0,-2,0,2,3,2,0,2699
2.3096E+11,0,-1,-1,1,4,-1,-1,-1,2700
2.3096E+11,0,-1,2,-1,-8,-1,-2,-2,2701
2.3096E+11,-3,-4,0,-2,8,4,3,-2,2702
2.3096E+11,-2,3,0,-1,-6,-4,-1,3,2703
2.3096E+11,-1,0,-2,-4,1,0,0,1,2704
2.3096E+11,-2,-2,-1,-1,0,1,-5,-4,2705
2.3096E+11,-3,-3,0,-1,4,-1,1,0,2706
2.3096E+11,-1,0,-1,-3,-5,0,-2,2,2707
2.3096E+11,1,-2,1,3,1,0,0,-2,2708
2.3096E+11,-2,-1,-1,2,6,-1,1,-2,2709
2.3096E+11,-4,0,-1,-5,-11,-3,-5,-1,2710
2.3096E+11,2,-1,1,1,6,-2,0,-2,2711
2.3096E+11,-4,-1,-1,-1,0,-2,2,1,2712
2.3096E+11,1,-1,-2,0,0,-3,-2,-1,2713
2.3096E+11,2,1,0,1,1,-1,0,2,2714
2.3096E+11,0,1,0,1,2,1,3,2,2715
2.3096E+11,0,-2,-2,-1,-7,-4,-2,-6,2716
2.3096E+11,-3,2,-1,-2,0,-1,1,2,2717
2.3096E+11,-4,-2,-1,0,11,1,0,-3,2718
2.3096E+11,-1,2,-1,2,-9,-3,0,1,2719
2.3096E+11,1,0,1,-1,6,2,0,3,2720
2.3096E+11,4,-1,1,1,-1,1,0,2,2721
2.3096E+11,1,1,0,0,0,-2,-7,-14,2722
2.3096E+11,3,1,-3,-4,-5,1,1,2,2723
2.3096E+11,-1,0,0,-1,-6,0,0,-3,2724
2.3096E+11,2,0,1,0,1,-2,1,-2,2725
2.3096E+11,-1,-1,1,0,-3,1,1,4,2726
2.3096E+11,0,-3,-2,-2,2,-2,-4,-6,2727
2.3096E+11,-4,-4,-1,-4,-1,-1,0,1,2728
2.3096E+11,-1,1,-1,1,2,1,-3,2,2729
2.3096E+11,2,0,-3,-1,-11,0,1,1,2730
2.3096E+11,-5,-4,0,-2,3,1,0,0,2731
2.3096E+11,-4,1,-3,1,-2,-1,4,4,2732
2.3096E+11,-4,-5,-2,-5,-4,-2,-2,-3,2733
2.3096E+11,-4,2,-1,0,0,0,-2,1,2734
2.3096E+11,2,-1,-1,-1,-1,1,0,-1,2735
2.3096E+11,1,-2,-2,0,1,1,-4,-4,2736
2.3096E+11,-3,1,0,1,-1,-2,-2,2,2737
2.3096E+11,-2,1,-1,-2,-4,-4,0,1,2738
2.3096E+11,0,0,-1,-2,4,-1,-1,-2,2739
2.3096E+11,-1,-1,0,1,-13,1,0,-3,2740
2.3096E+11,2,-2,-1,-3,0,0,0,2,2741
2.3096E+11,1,-1,-1,1,3,3,4,2,2742
2.3096E+11,-3,-2,-4,-1,2,1,-8,-3,2743
2.3096E+11,-6,-1,-3,-1,0,-4,-10,-5,2744
2.3096E+11,2,-1,1,2,0,-1,1,-2,2745
2.3096E+11,1,0,1,-4,-8,-3,-3,1,2746
2.3096E+11,-3,0,-1,0,6,2,2,4,2747
2.3096E+11,3,2,0,0,0,1,3,1,2748
2.3096E+11,-4,-2,-1,-2,4,0,-3,-7,2749
2.3096E+11,2,-1,0,0,-2,-5,0,0,2750
2.30961E+11,1,-1,0,1,4,0,1,-1,2751
2.30961E+11,-1,0,2,0,0,-3,-1,0,2752
2.30961E+11,0,-2,-3,-1,0,-1,-2,-1,2753
2.30961E+11,-2,-2,-2,0,-1,2,3,-1,2754
2.30961E+11,-2,0,-2,0,-2,1,-3,-1,2755
2.30961E+11,3,1,2,0,1,-1,1,1,2756
2.30961E+11,0,0,-2,-3,-4,0,2,1,2757
2.30961E+11,-3,-1,-2,-1,2,-1,-4,-3,2758
2.30961E+11,0,-1,-2,1,-5,-3,1,0,2759
2.30961E+11,-2,-1,-3,-4,-5,-1,-2,2,2760
2.30961E+11,-2,-3,0,0,-1,-3,1,-2,2761
2.30961E+11,1,-1,-1,-2,3,-1,-2,-2,2762
2.30961E+11,0,0,0,2,2,-2,2,-1,2763
2.30961E+11,-5,-1,0,-3,-6,1,2,0,2764
2.30961E+11,-1,3,2,-2,6,-5,-7,1,2765
2.30961E+11,-3,1,-2,-3,-16,-5,0,0,2766
2.30961E+11,-1,-2,0,-2,0,-1,-4,-1,2767
2.30961E+11,3,-3,-2,4,8,0,-1,-3,2768
2.30961E+11,-3,-3,0,1,-1,3,0,-1,2769
2.30961E+11,0,-2,-1,-1,0,-2,0,-1,2770
2.30961E+11,1,1,1,-2,-1,-2,-1,0,2771
2.30961E+11,2,2,0,-2,-1,0,0,2,2772
2.30961E+11,-2,0,-2,-1,-6,-2,-1,2,2773
2.30961E+11,-2,-3,-1,0,3,5,13,-3,2774
2.30961E+11,-1,0,-1,-2,-8,-4,-15,-10,2775
2.30961E+11,-1,-4,-3,1,0,1,1,-6,2776
2.30961E+11,-2,1,-1,1,0,-2,-1,0,2777
2.30961E+11,1,-2,1,0,-1,0,-1,2,2778
2.30961E+11,-3,-2,-1,-3,-5,2,5,3,2779
2.30961E+11,-2,-2,-2,-5,0,-2,-2,0,2780
2.30961E+11,-1,-3,-2,1,-3,1,0,-3,2781
2.30961E+11,-2,-3,0,1,2,-1,-4,-3,2782
2.30961E+11,1,-1,-1,-1,1,-1,2,0,2783
2.30961E+11,-1,-1,-3,0,-2,0,-1,1,2784
2.30961E+11,-2,-2,0,-1,5,2,1,-3,2785
2.30961E+11,2,1,-1,0,2,-2,-5,-1,2786
2.30961E+11,-1,-2,-1,2,4,1,-1,0,2787
2.30961E+11,-3,1,-3,-9,-13,-4,-1,-1,2788
2.30961E+11,1,2,-1,0,1,0,0,-2,2789
2.30961E+11,-2,1,0,2,0,0,-3,-1,2790
2.30961E+11,-1,-1,-3,0,-1,-2,-1,1,2791
2.30961E+11,-2,-2,-1,1,5,3,0,-2,2792
2.30961E+11,-3,-3,-2,-2,0,0,0,-2,2793
2.30961E+11,1,-2,1,-1,-9,-6,-3,-3,2794
2.30961E+11,2,-1,-4,-2,-3,1,0,0,2795
2.30961E+11,-2,-3,-2,1,4,1,-2,-1,2796
2.30961E+11,1,-2,-3,-2,0,1,1,2,2797
2.30961E+11,-3,0,1,3,14,-1,-3,-3,2798
2.30961E+11,-2,0,0,-2,-16,-4,0,4,2799
2.30961E+11,-1,1,0,-2,-9,1,3,-3,2800
2.30961E+11,0,0,-1,-1,0,-6,-4,0,2801
2.30961E+11,-1,-1,-2,-3,0,2,1,1,2802
2.30961E+11,-1,-2,1,0,3,-1,0,-2,2803
2.30961E+11,-2,1,-1,0,3,-1,-2,-1,2804
2.30961E+11,0,2,-1,1,-8,1,-1,-2,2805
2.30961E+11,3,-2,-1,0,1,0,-3,-2,2806
2.30961E+11,0,-2,2,-2,-1,0,-2,0,2807
2.30961E+11,-2,1,2,2,-1,0,0,1,2808
2.30961E+11,-2,0,0,-3,1,-2,1,-1,2809
2.30961E+11,-1,-1,-4,-2,-4,-2,-2,1,2810
2.30961E+11,0,-1,-2,1,4,-1,3,-2,2811
2.30961E+11,2,-3,-1,1,1,1,-3,1,2812
2.30961E+11,-2,1,-2,0,-4,-1,-1,-1,2813
2.30961E+11,0,0,0,-3,4,2,0,-1,2814
2.30961E+11,-3,-2,-2,-2,-11,-7,-2,0,2815
2.30961E+11,-1,1,0,2,-10,3,2,0,2816
2.30961E+11,-1,-4,3,-2,0,-4,-3,0,2817
2.30961E+11,2,1,-1,-1,-2,1,3,1,2818
2.30961E+11,-3,-1,-1,-1,4,0,-2,-4,2819
2.30961E+11,0,-3,-2,-1,5,-2,-1,1,2820
2.30961E+11,1,-1,-1,-2,-5,0,-2,-3,2821
2.30961E+11,-2,-1,0,0,-4,-1,0,-1,2822
2.30961E+11,-3,0,0,1,1,0,0,-3,2823
2.30961E+11,1,-1,0,-2,-1,-1,-1,0,2824
2.30961E+11,1,2,-1,-2,0,1,2,1,2825
2.30961E+11,2,-2,-2,0,1,0,0,0,2826
2.30961E+11,0,0,-1,0,-1,2,1,2,2827
2.30961E+11,1,-1,-2,0,0,-2,-2,1,2828
2.30961E+11,-5,-4,0,-1,1,1,2,-2,2829
2.30961E+11,0,-1,0,1,1,-1,-2,-1,2830
2.30961E+11,-2,2,-2,-2,-7,-3,0,0,2831
2.30961E+11,3,2,0,-1,1,-2,0,2,2832
2.30961E+11,0,-2,-3,1,8,2,-3,-2,2833
2.30961E+11,0,-1,1,-1,-26,-3,-4,1,2834
2.30961E+11,-5,-1,0,-3,1,5,2,-1,2835
2.30961E+11,0,-3,-1,2,7,-9,-7,-3,2836
2.30961E+11,1,0,-3,-2,-2,-1,-2,-2,2837
2.30961E+11,-4,-2,-2,2,6,1,-1,-4,2838
2.30961E+11,2,-2,-2,0,0,0,-1,-1,2839
2.30961E+11,-2,2,-2,-3,-4,-1,2,0,2840
2.30961E+11,2,-1,1,-3,-3,0,-1,1,2841
2.30961E+11,1,-3,-2,-1,1,-3,-1,-1,2842
2.30961E+11,-2,-1,-2,-2,-3,-2,-1,-2,2843
2.30961E+11,-3,-4,1,0,3,5,9,-2,2844
2.30961E+11,0,0,-1,0,-4,-3,-2,-4,2845
2.30961E+11,0,1,-1,-3,0,-2,2,-1,2846
2.30961E+11,-4,-1,1,1,0,-2,-2,0,2847
2.30961E+11,1,-3,-2,5,25,1,-1,-4,2848
2.30961E+11,-5,3,-1,-12,-34,-8,-4,1,2849
2.30961E+11,-4,-2,1,0,1,-2,1,-3,2850
2.30961E+11,0,-1,-3,-1,2,-1,-1,0,2851
2.30961E+11,-2,1,-2,-1,2,2,-4,-1,2852
2.30961E+11,1,-4,-2,3,7,1,1,0,2853
2.30961E+11,-2,-3,-2,-4,-2,-1,-4,-1,2854
2.30961E+11,2,-2,-1,1,-2,-1,1,1,2855
2.30961E+11,1,-1,-1,-3,-7,-2,2,-2,2856
2.30961E+11,0,1,-1,1,1,0,2,0,2857
2.30961E+11,2,1,1,0,0,-1,2,-2,2858
2.30961E+11,0,0,-1,0,3,1,-1,-1,2859
2.30961E+11,-3,-1,-2,-3,-7,-3,-2,-1,2860
2.30961E+11,-2,-2,-2,-2,1,0,-2,-2,2861
2.30961E+11,-4,1,-1,-1,6,0,-3,0,2862
2.30961E+11,3,-2,0,1,-2,-1,0,0,2863
2.30961E+11,1,1,1,0,-4,-1,-1,0,2864
2.30961E+11,0,-2,-1,-1,2,-1,-1,-1,2865
2.30961E+11,-3,-6,-2,2,8,-1,-1,-3,2866
2.30961E+11,1,2,1,-3,-8,-4,-4,3,2867
2.30961E+11,-4,0,-1,-1,-7,-1,-1,0,2868
2.30961E+11,-1,2,-1,1,5,0,2,1,2869
2.30961E+11,-1,5,-1,-3,-1,-1,0,0,2870
2.30961E+11,-5,-13,-4,1,22,1,0,-2,2871
2.30961E+11,1,1,-1,-7,-17,-3,-7,-1,2872
2.30961E+11,0,0,-2,-4,-8,-6,-6,0,2873
2.30961E+11,-2,0,0,-2,1,1,2,-2,2874
2.30961E+11,1,3,1,0,2,-2,0,0,2875
2.30961E+11,-2,0,-1,0,4,4,3,-1,2876
2.30961E+11,3,-3,-1,1,0,-2,-3,-3,2877
2.30961E+11,-2,3,-2,-2,-6,-3,-4,-1,2878
2.30961E+11,-2,3,0,-3,-5,1,0,-1,2879
2.30961E+11,1,-6,-1,1,1,0,1,1,2880
2.30961E+11,-3,1,-4,-1,-2,2,0,-1,2881
2.30961E+11,0,2,-1,-1,-1,-1,1,-1,2882
2.30961E+11,1,-1,-2,-1,-5,0,0,1,2883
2.30961E+11,-3,1,-1,1,0,1,-1,-4,2884
2.30961E+11,-2,-3,-1,0,4,-3,-10,-3,2885
2.30961E+11,2,-1,-3,0,-5,-2,-3,2,2886
2.30961E+11,-2,-1,-1,-2,-2,1,-2,-5,2887
2.30961E+11,1,0,1,-2,0,-2,-2,0,2888
2.30961E+11,3,1,3,5,12,1,4,-1,2889
2.30961E+11,-2,-13,-6,-6,-20,-1,2,0,2890
2.30961E+11,-6,0,1,0,1,-1,-5,-1,2891
2.30961E+11,3,0,-5,-3,3,-4,11,1,2892
2.30961E+11,1,4,-2,-2,-6,-2,3,0,2893
2.30961E+11,0,-3,2,1,4,1,-1,-1,2894
2.30961E+11,0,-1,-2,1,2,-3,-2,-1,2895
2.30961E+11,-5,-4,0,-4,-13,1,4,-2,2896
2.30961E+11,-2,-2,0,1,1,0,3,2,2897
2.30961E+11,0,1,1,-2,-1,-1,-18,-3,2898
2.30961E+11,2,0,-3,-4,-4,1,10,5,2899
2.30961E+11,0,-1,0,2,6,-4,-7,0,2900
2.30961E+11,-1,-1,-2,-1,-3,4,2,0,2901
2.30961E+11,0,0,-1,1,4,0,-2,0,2902
2.30961E+11,2,0,0,1,-1,0,-2,-3,2903
2.30961E+11,-2,1,-1,-1,1,-1,-2,1,2904
2.30961E+11,-2,-3,0,-1,-3,-2,-3,-1,2905
2.30961E+11,2,1,-2,-2,0,-4,5,-2,2906
2.30961E+11,0,3,1,-3,-4,0,-1,-3,2907
2.30961E+11,4,-1,1,0,0,0,0,3,2908
2.30961E+11,3,1,-1,0,-1,0,-1,-1,2909
2.30961E+11,-11,-8,1,0,-2,-1,4,2,2910
2.30961E+11,-8,-11,-6,-8,-10,-3,-3,0,2911
2.30961E+11,-3,-1,0,1,3,0,-5,-2,2912
2.30961E+11,-1,0,-3,-4,-6,-1,0,0,2913
2.30961E+11,3,6,4,2,4,1,1,1,2914
2.30961E+11,0,-1,-1,-1,-1,-4,-3,-1,2915
2.30961E+11,-1,4,1,4,-3,1,18,4,2916
2.30961E+11,13,-8,-3,0,9,2,-5,-4,2917
2.30961E+11,-2,4,-7,-8,-19,-3,-5,-2,2918
2.30961E+11,-1,1,1,0,1,-2,-2,0,2919
2.30961E+11,-1,0,-2,-1,-2,1,0,1,2920
2.30961E+11,0,-2,3,2,0,5,8,3,2921
2.30961E+11,0,-3,0,3,8,-4,-6,-2,2922
2.30961E+11,2,2,-1,-1,-9,1,-1,-1,2923
2.30961E+11,-1,2,0,0,5,-1,-3,-4,2924
2.30961E+11,-7,-2,1,-1,-3,-3,1,2,2925
2.30961E+11,2,-6,-1,-4,1,0,-3,0,2926
2.30961E+11,-4,3,0,1,2,-2,1,-5,2927
2.30961E+11,-2,-9,-2,-1,0,-5,-6,0,2928
2.30961E+11,-5,-2,-1,-1,-1,0,-2,-1,2929
2.30961E+11,4,-4,-1,-1,-1,-1,8,-1,2930
2.30961E+11,0,10,4,4,15,0,-4,-3,2931
2.30961E+11,-1,-7,-5,-5,-15,0,-6,0,2932
2.30961E+11,-5,4,-3,-2,2,-2,-5,-2,2933
2.30961E+11,5,-2,-1,-2,-4,-2,1,0,2934
2.30961E+11,-2,-1,1,0,1,-1,23,0,2935
2.30961E+11,-3,0,-3,2,3,1,-17,-3,2936
2.30961E+11,-8,-6,2,-4,-11,-6,-6,0,2937
2.30961E+11,5,6,-4,-2,5,-1,-19,0,2938
2.30961E+11,-6,-5,-5,-3,-6,-2,-15,-2,2939
2.30961E+11,0,3,3,2,0,-1,3,-1,2940
2.30961E+11,0,-2,0,2,0,-1,2,-2,2941
2.30961E+11,-3,3,1,1,2,3,6,-2,2942
2.30961E+11,2,-3,-6,-2,-5,-3,-5,-6,2943
2.30961E+11,0,-1,-2,-2,0,-1,-4,-1,2944
2.30961E+11,-2,0,-3,-4,2,-2,-3,-1,2945
2.30961E+11,-8,-1,-1,-1,0,0,3,0,2946
2.30961E+11,2,0,0,-1,-3,0,-2,0,2947
2.30961E+11,-1,-5,-1,-2,-1,-1,12,0,2948
2.30961E+11,2,-2,1,-1,-2,-1,5,-2,2949
2.30961E+11,-2,-2,0,1,-1,-1,-4,-4,2950
2.30962E+11,2,0,0,0,-1,0,-2,2,2951
2.30962E+11,0,1,-2,-1,-1,0,3,-4,2952
2.30962E+11,0,1,-2,1,-1,1,-2,1,2953
2.30962E+11,-4,-2,1,1,0,2,-1,1,2954
2.30962E+11,0,-4,1,0,-12,-1,22,3,2955
2.30962E+11,-5,0,-2,-4,-3,-3,-14,-3,2956
2.30962E+11,-1,1,-4,-1,-1,-4,1,-2,2957
2.30962E+11,-4,1,2,0,-2,0,-1,2,2958
2.30962E+11,-1,-2,3,1,4,1,0,-1,2959
2.30962E+11,-2,1,0,-2,0,0,3,0,2960
2.30962E+11,-1,2,-3,-1,-11,-1,19,-1,2961
2.30962E+11,1,0,0,1,3,2,-4,-3,2962
2.30962E+11,-1,-3,1,0,-1,-2,-10,3,2963
2.30962E+11,-1,1,0,0,0,-2,2,-1,2964
2.30962E+11,-1,-3,-1,1,4,1,-2,-4,2965
2.30962E+11,-3,-4,0,1,2,1,5,-1,2966
2.30962E+11,-3,1,-1,-3,1,-1,-1,-2,2967
2.30962E+11,5,3,-3,-3,-5,-2,-7,0,2968
2.30962E+11,-2,-3,1,0,1,-1,-3,-2,2969
2.30962E+11,-3,1,-2,1,1,-2,5,1,2970
2.30962E+11,0,-1,-2,1,4,-1,-7,-3,2971
2.30962E+11,2,-1,-3,-2,2,-4,4,1,2972
2.30962E+11,-2,-5,0,0,6,-2,-10,-1,2973
2.30962E+11,-2,1,-1,-5,-12,-5,2,2,2974
2.30962E+11,2,-3,-1,0,3,3,1,-2,2975
2.30962E+11,-2,-4,0,0,-1,3,0,1,2976
2.30962E+11,4,3,-1,0,-3,-1,-5,0,2977
2.30962E+11,-2,-4,0,1,10,-1,-29,-1,2978
2.30962E+11,-1,-2,-2,-2,-13,-2,15,3,2979
2.30962E+11,-10,-21,-5,-4,1,-1,-9,-6,2980
2.30962E+11,-5,4,-2,-2,1,0,-3,0,2981
2.30962E+11,-3,-2,-1,-2,-2,-2,15,1,2982
2.30962E+11,1,1,0,-1,3,-1,-8,1,2983
2.30962E+11,-3,-1,3,1,-4,0,-3,-2,2984
2.30962E+11,-2,-3,-2,-2,7,0,10,0,2985
2.30962E+11,0,0,-3,-3,-20,-2,-22,0,2986
2.30962E+11,-4,0,-2,-3,-3,-1,-4,0,2987
2.30962E+11,-1,3,-1,0,2,-2,4,-4,2988
2.30962E+11,0,-5,-1,0,-1,0,-2,1,2989
2.30962E+11,5,1,-3,-1,0,0,8,-1,2990
2.30962E+11,-1,-1,-1,2,-2,-1,-5,-3,2991
2.30962E+11,1,3,1,1,-1,0,-8,1,2992
2.30962E+11,0,0,1,1,-1,2,21,4,2993
2.30962E+11,-5,-5,-3,0,3,0,-16,-5,2994
2.30962E+11,-1,0,-2,-3,-2,-1,1,1,2995
2.30962E+11,-3,-6,-1,0,0,-2,4,1,2996
2.30962E+11,-3,1,1,-1,-5,0,-2,-3,2997
2.30962E+11,2,-2,-1,-1,1,-2,12,-1,2998
2.30962E+11,2,0,0,-1,-3,-1,-4,0,2999
2.30962E+11,1,2,-1,2,5,-1,-4,-2,3000
2.30962E+11,0,-5,-4,-2,-1,-2,-8,-2,3001
2.30962E+11,-1,5,-2,-5,5,-3,11,-1,3002
2.30962E+11,-5,-6,-1,-1,-15,-6,-9,-4,3003
2.30962E+11,1,6,3,2,2,2,14,5,3004
2.30962E+11,1,2,2,-1,-3,3,-5,-4,3005
2.30962E+11,7,-7,-3,-4,3,-2,2,1,3006
2.30962E+11,-3,-4,-2,1,2,2,3,0,3007
2.30962E+11,-3,0,-2,0,-1,-2,-1,0,3008
2.30962E+11,1,0,-1,-2,-3,-2,-6,-2,3009
2.30962E+11,-3,1,2,2,-5,-1,-8,-1,3010
2.30962E+11,-8,-4,-1,-2,3,1,-1,-3,3011
2.30962E+11,1,-5,-4,-2,-4,0,-1,-1,3012
2.30962E+11,-1,0,-2,-1,1,2,-2,0,3013
2.30962E+11,-3,-1,-1,-1,-5,-3,-25,-3,3014
2.30962E+11,4,2,-2,1,4,1,-1,1,3015
2.30962E+11,-1,0,-2,-2,-1,-1,0,-3,3016
2.30962E+11,-1,-2,-3,-1,-2,-4,-1,-1,3017
2.30962E+11,-2,1,1,3,-5,4,32,6,3018
2.30962E+11,-1,-1,0,-4,-9,-3,-12,-7,3019
2.30962E+11,4,-2,-3,-3,-3,-1,-7,1,3020
2.30962E+11,-1,-1,2,1,-1,-1,-3,-3,3021
2.30962E+11,1,1,-1,1,1,-1,9,-1,3022
2.30962E+11,5,6,-1,3,9,2,-1,-1,3023
2.30962E+11,0,0,-3,0,-5,-2,0,-5,3024
2.30962E+11,-2,-3,-1,-3,-1,0,-21,-1,3025
2.30962E+11,-4,-4,-1,-2,1,-3,4,0,3026
2.30962E+11,4,1,0,1,2,2,4,2,3027
2.30962E+11,-1,0,-1,-3,-1,-1,-5,-3,3028
2.30962E+11,-3,-2,-1,1,1,-2,3,-4,3029
2.30962E+11,0,-1,1,0,0,2,0,-1,3030
2.30962E+11,0,-2,0,-2,-1,-3,0,-1,3031
2.30962E+11,3,2,0,1,-3,1,5,1,3032
2.30962E+11,-1,-1,-1,-2,-1,-2,1,1,3033
2.30962E+11,-1,0,-2,-1,12,0,-1,-2,3034
2.30962E+11,-3,-3,-3,-1,-2,-6,-5,0,3035
2.30962E+11,-6,1,-2,0,0,3,-1,0,3036
2.30962E+11,4,-2,-2,0,-3,-1,0,0,3037
2.30962E+11,0,1,1,-4,-4,1,1,2,3038
2.30962E+11,-2,-4,-1,-1,2,0,2,0,3039
2.30962E+11,1,-1,-2,0,-4,-2,-5,-1,3040
2.30962E+11,-2,0,-3,-2,0,0,0,-1,3041
2.30962E+11,-4,-2,1,-3,-13,-2,5,-2,3042
2.30962E+11,-2,0,0,1,4,0,3,1,3043
2.30962E+11,-3,-2,3,-2,2,1,-1,-2,3044
2.30962E+11,-3,1,-3,-1,-3,1,3,-1,3045
2.30962E+11,2,0,-1,0,3,-1,-5,0,3046
2.30962E+11,-2,-2,0,-2,-5,-2,3,1,3047
2.30962E+11,3,2,-2,-2,1,0,-5,0,3048
2.30962E+11,-3,3,2,2,2,1,-1,-1,3049
2.30962E+11,-3,-5,0,-1,-1,-3,-4,1,3050
2.30962E+11,1,-1,-1,2,-1,3,13,-3,3051
2.30962E+11,-2,-5,-3,1,5,-3,1,1,3052
2.30962E+11,0,-1,0,-2,-9,-1,16,2,3053
2.30962E+11,-2,0,-1,-3,0,-2,-68,-11,3054
2.30962E+11,0,-1,2,1,2,-1,12,7,3055
2.30962E+11,-2,-2,-1,-3,-1,1,-14,-4,3056
2.30962E+11,-1,0,-1,1,0,-3,-4,-2,3057
2.30962E+11,1,0,0,3,3,3,16,-1,3058
2.30962E+11,-2,0,-5,-6,-7,-3,-10,-1,3059
2.30962E+11,2,-1,0,-3,-3,0,-9,-1,3060
2.30962E+11,-1,-4,-1,0,-1,-1,-2,2,3061
2.30962E+11,0,1,-2,-1,0,2,14,1,3062
2.30962E+11,-2,1,-1,-4,1,0,-10,-2,3063
2.30962E+11,1,0,1,2,-4,-1,16,4,3064
2.30962E+11,-1,-1,-1,-2,-12,-1,-4,-4,3065
2.30962E+11,-1,-1,-2,0,-1,0,9,-1,3066
2.30962E+11,3,1,0,-1,0,-1,-5,-3,3067
2.30962E+11,0,0,-2,-2,-2,-2,-4,-2,3068
2.30962E+11,1,-1,1,-1,3,0,2,-2,3069
2.30962E+11,-3,0,-1,-1,-3,-1,2,-1,3070
2.30962E+11,-2,-1,-1,-1,-6,-1,-1,-2,3071
2.30962E+11,-3,-2,1,0,1,0,0,-2,3072
2.30962E+11,0,2,0,2,4,1,-5,-5,3073
2.30962E+11,0,-3,-1,0,-4,-1,-8,-3,3074
2.30962E+11,-1,-4,-3,2,7,-4,2,0,3075
2.30962E+11,0,-1,2,1,-9,-1,-15,1,3076
2.30962E+11,1,0,-5,-1,2,-1,0,-2,3077
2.30962E+11,0,-2,-2,2,-1,0,4,-2,3078
2.30962E+11,-3,0,2,-1,1,4,-1,-5,3079
2.30962E+11,-1,3,-2,-1,0,-2,4,0,3080
2.30962E+11,0,-1,2,0,-1,-1,-5,0,3081
2.30962E+11,0,-2,-5,-3,2,-2,3,-1,3082
2.30962E+11,-2,-2,-2,-3,8,0,-3,1,3083
2.30962E+11,-3,-3,0,-1,-6,-1,12,3,3084
2.30962E+11,0,-2,-1,-1,1,-3,-15,-3,3085
2.30962E+11,1,0,0,1,4,5,17,0,3086
2.30962E+11,0,-1,0,0,-5,-9,-8,-2,3087
2.30962E+11,-4,1,-1,0,3,2,0,-2,3088
2.30962E+11,1,-4,0,0,-2,0,0,1,3089
2.30962E+11,1,-1,0,-2,-4,-3,2,0,3090
2.30962E+11,-1,-1,0,3,-2,-1,-5,0,3091
2.30962E+11,0,1,-1,0,0,-1,-2,-3,3092
2.30962E+11,-2,-2,-2,-3,-3,-2,2,-1,3093
2.30962E+11,-3,0,0,0,1,0,-6,-1,3094
2.30962E+11,-1,2,0,-1,-6,-1,-4,4,3095
2.30962E+11,1,-1,1,-1,7,3,12,3,3096
2.30962E+11,0,-1,-1,0,6,3,5,0,3097
2.30962E+11,-1,2,-3,-1,-5,-8,-28,-5,3098
2.30962E+11,-2,-2,-1,-2,-3,1,0,-2,3099
2.30962E+11,-2,-1,1,1,2,3,1,-4,3100
2.30962E+11,1,0,-1,-1,0,0,-7,3,3101
2.30962E+11,-1,-3,0,-2,-7,1,14,4,3102
2.30962E+11,-3,0,0,-1,1,0,3,-1,3103
2.30962E+11,-1,1,0,-2,1,-1,-2,-2,3104
2.30962E+11,-2,-2,-1,0,3,0,1,-2,3105
2.30962E+11,0,2,-2,-2,-5,-4,4,0,3106
2.30962E+11,-1,-1,0,-1,-1,1,-1,-2,3107
2.30962E+11,0,-5,-2,0,-3,-4,-4,-4,3108
2.30962E+11,-2,0,-2,-1,-3,-3,-1,0,3109
2.30962E+11,-3,-2,-1,3,2,1,5,2,3110
2.30962E+11,-1,-1,-2,-1,-1,1,-1,-2,3111
2.30962E+11,-1,-3,-2,-2,-5,-2,-2,1,3112
2.30962E+11,-5,-3,-2,-1,-8,0,2,-3,3113
2.30962E+11,-1,1,1,0,4,-1,3,2,3114
2.30962E+11,-1,-2,-3,-4,-4,0,-1,0,3115
2.30962E+11,-1,0,-3,-1,-2,-2,0,-1,3116
2.30962E+11,0,1,-3,0,-1,-2,0,0,3117
2.30962E+11,0,-3,-1,-1,0,2,-1,0,3118
2.30962E+11,2,-4,0,1,-7,-7,-6,-5,3119
2.30962E+11,-1,1,-2,-2,0,1,-5,-1,3120
2.30962E+11,1,-3,1,-2,0,-1,-2,2,3121
2.30962E+11,-3,-4,1,0,1,0,3,-2,3122
2.30962E+11,1,1,1,2,2,-1,-5,-1,3123
2.30962E+11,-4,-1,-2,-1,4,-2,1,1,3124
2.30962E+11,0,1,3,2,-9,4,4,-3,3125
2.30962E+11,1,0,-2,-6,-8,-8,-6,-1,3126
2.30962E+11,0,-2,0,-1,2,5,6,1,3127
2.30962E+11,1,0,-2,-1,8,-2,-1,-1,3128
2.30962E+11,-2,0,-2,1,-3,-3,-2,-3,3129
2.30962E+11,-2,-3,-2,1,5,-1,0,2,3130
2.30962E+11,-1,5,-3,-1,0,2,1,1,3131
2.30962E+11,-1,0,-1,-2,-2,-2,-9,-7,3132
2.30962E+11,0,-2,-1,-4,5,-2,-3,-1,3133
2.30962E+11,1,2,-1,-1,-8,-2,2,0,3134
2.30962E+11,-2,-5,-3,-1,2,-1,0,-4,3135
2.30962E+11,0,-1,-1,0,-4,3,1,3,3136
2.30962E+11,3,-1,1,3,0,-3,1,0,3137
2.30962E+11,-1,-1,-1,1,-2,-1,-2,0,3138
2.30962E+11,0,1,1,-2,0,1,3,-2,3139
2.30962E+11,1,-2,-1,-1,-4,-1,3,3,3140
2.30962E+11,1,-1,-1,-3,-4,-5,-3,-5,3141
2.30962E+11,-1,-3,-3,-1,2,1,1,-3,3142
2.30962E+11,0,0,-2,0,-3,2,-7,-3,3143
2.30962E+11,-4,-2,-1,-2,-2,-1,-3,0,3144
2.30962E+11,-3,-1,-1,-2,1,2,5,0,3145
2.30962E+11,1,-3,-1,-1,-14,-2,-2,-2,3146
2.30962E+11,0,1,1,-2,-2,-3,1,0,3147
2.30962E+11,0,-1,0,-2,0,0,-4,2,3148
